1	1	0.392507302761	0.676570194155	0.601804123416	0.183420948847	-0.349747221477	-0.860932351937	-1.17006560471	-0.941732240278	-0.0557679074226	1.11783282049	2.04578885075	2.49129017221	2.45744382939	1.95219933679	1.14809930651	0.553991874853	0.50259481234	0.539556033783	-0.0893440356991	-1.2724564118	-1.92597235805	-1.35628446199	-0.23790184343	0.26433167931	-0.030523936458	-0.376140060794	-0.398216049622	-0.519177951256	-0.94728513769	-1.07712405652	-0.3962758824	0.566323448618	0.854450977987	0.387345025606	-0.00406092684264	0.225191170919	0.735595662047	1.03669884435	1.14328836424	1.18411957653	0.944118362201	0.338077363327	-0.107869795463	0.105212107577	0.512306199729	0.0883154488252	-1.29438845815	-2.45549977706	-2.30476951681	-1.20620932406	-0.437661411237	1.13907314278	0.747586673992	-0.00851910355516	-0.366102243169	-0.106959569005	0.0336724957219	-0.496196454644	-1.13453539113	-0.991713885836	-0.212505191848	0.0852763252296	-0.7629202145	-2.12976969796	-2.81902810117	-2.30268842889	-1.04561879512	0.112226826523	0.624227470226	0.534998315818	0.423606990581	0.903296374526	1.86587384342	2.38453185995	1.78262945512	0.650041997807	0.228816193701	0.788365569746	1.25778395272	0.799498307129	0.039569283241	0.0936569581416	0.819784595761	0.96383618026	0.0128569232938	-1.04506304257	-1.17911818139	-0.73820270718	-0.701510949078	-1.11522066576	-1.18606768046	-0.678768747034	-0.268733660658	-0.403988913911	-0.625675555787	-0.39690458519	0.00686448079725	-0.0415753693636	-0.542671642016	-0.952473862177	-1.06286824683	-1.19411972463	-0.756939826022	-0.730612064988	0.249952171725	0.988810224119	0.463339008461	-0.834981096766	-1.51144351537	-1.07812751131	-0.467758147337	-0.60206996585	-1.16070515791	-1.23504764059	-0.750617481756	-0.508849041383	-0.879806325013	-1.21976095885	-0.826374141338	0.0936630086008	0.78646031102	0.905101681704	0.667920466462	0.356190937871	0.123231506076	0.101443302833	0.251480531057	0.252722372856	-0.0667951192317	-0.310642284995	-0.0232999450278	0.486742683637	0.427309381784	-0.252546745522	-0.613200409551	-0.0213391511802	0.896211097872	1.06812099307	0.357680399799	-0.410554335802	-0.546607631474	-0.1656984383	0.102721892381	-0.254404323698	-1.13619035181	-1.73079067632	-1.18488516731	0.336430751562	1.61066764855	1.75663667128	1.24975793011	1.03738802357	1.0553112078	
1	1	-1.31487610967	-0.732874176349	0.414225405694	0.993659294594	0.827120613028	0.456877863309	0.163193382498	-0.190862203652	-0.572603016941	-0.611972495523	-0.0830857797618	0.783536416547	1.49029075295	1.57220480288	0.847229360573	-0.293075579794	-0.974144905727	-0.657321842259	0.122898336029	0.288910427702	-0.384721548042	-0.928346715717	-0.523934215128	0.280719641726	0.330624222445	-0.427054743629	-0.796979873201	-0.0228160951235	1.14324469852	1.48979753253	0.960132491607	0.504917271526	0.525219535343	0.339380182046	-0.572166312641	-1.59822530147	-1.80852993288	-1.26250284477	-0.840791123845	-0.955884498571	-1.09345032175	-0.689311827454	0.070826907251	0.593413813004	0.638873668359	0.450695093196	0.351006416149	0.467200979554	0.732556959374	0.922477606622	0.75096586752	1.71805629476	1.12900730594	0.677603094394	0.573953876732	0.720290545413	0.788795176705	0.451980778626	-0.287778556467	-0.916329550673	-0.806834910538	-0.0788051798312	0.246501792366	-0.597940874789	-1.96766857623	-2.39701407257	-1.37964801614	-0.0106298753848	0.465519639983	0.183823282047	0.140906263109	0.577644113572	0.758221435551	0.351773088682	0.0875567975583	0.629771633121	1.47863004434	1.65518512595	1.0847302999	0.56189871379	0.437367258688	0.17630181466	-0.578455464901	-1.26997454061	-1.2336441092	-0.705171501074	-0.438278707895	-0.542391879367	-0.383294957145	0.328777517965	0.994851861066	0.930244876683	0.271792318434	-0.336011583235	-0.647981129088	-0.908521094742	-1.14366655815	-0.908979392651	0.027257601242	1.07195400232	1.27000083663	0.369611673579	-1.38139386776	-0.90423002573	-0.0135624553037	0.116955150782	-0.588732227512	-1.0017206026	-0.327694109742	0.785932308732	1.04791845822	0.133606631445	-0.943712003646	-1.05625059921	-0.193892543851	0.632688010975	0.553406743237	-0.252778155375	-0.789030018	-0.368203237963	0.552184962428	0.815498785659	-0.0354980735984	-1.08830146653	-1.09911093988	0.0477673614936	1.36367820589	2.07387732962	2.26652138078	2.20671411819	1.76569884207	0.970188363292	0.438056567564	0.615985725098	0.982075874024	0.71050574441	-0.0859033647757	-0.495352077578	-0.13240953527	0.423701760731	0.677204644113	0.895995198978	1.32625244606	1.42481862246	0.577741094097	-0.795677698877	-1.56833512035	-1.27774230658	-0.581166760622	-0.316462951489	-0.619895567134	-1.0513732498	-1.19338103404	
1	1	-1.09345032175	-0.689311827454	0.070826907251	0.593413813004	0.638873668359	0.450695093196	0.351006416149	0.467200979554	0.732556959374	0.922477606622	0.75096586752	0.143323750363	-0.571473110408	-0.954258527142	-1.00063499269	-1.09533434889	-1.30784129728	-1.17251693558	-0.50356208925	0.0460394396007	-0.142720280357	-0.575679436905	-0.238597453712	0.802608875162	1.35023826497	0.823625919931	0.110064611047	0.162992483466	0.61039795779	0.548879663023	0.0861795166888	0.0547777529041	0.494107880713	0.609138967836	0.274476607409	0.320020577235	0.934448369637	0.990053934422	-0.246411473623	-1.62002333595	-1.41544087362	0.223160248258	1.36250621345	0.803074359369	-0.541751864356	-1.14000321296	-0.830391183638	-0.613927637634	-0.943822031587	-1.16053499583	-0.669071093121	0.930244876683	0.271792318434	-0.336011583235	-0.647981129088	-0.908521094742	-1.14366655815	-0.908979392651	0.027257601242	1.07195400232	1.27000083663	0.369611673579	-0.866595943571	-1.48263255434	-1.25995977216	-0.724349747033	-0.370365712086	-0.15949158568	0.174055252253	0.535008966877	0.499473994186	0.039788039356	-0.188833045916	0.327245903347	1.1085071496	1.20502156664	0.513949921181	-0.0751609499934	0.00282848507623	0.178806695132	-0.340946222673	-1.32474501058	-1.8383031914	-1.61958911287	-1.32296339461	-1.28582575459	-0.95756688259	-0.0122866470904	0.757732763501	0.447067223065	-0.49408199362	-0.677377547017	0.38289363733	1.61703348963	1.80165138158	0.992025552924	0.188591969239	0.0413110914709	0.374693396516	0.772027871346	1.08315669706	1.30859644005	1.32625244606	1.42481862246	0.577741094097	-0.795677698877	-1.56833512035	-1.27774230658	-0.581166760622	-0.316462951489	-0.619895567134	-1.0513732498	-1.19338103404	-0.966484034461	-0.651642123781	-0.685649909145	-1.07748297155	-1.14673972502	-0.369029345347	0.609304009613	0.61261843217	-0.355495477485	-0.968670211107	-0.468939250007	0.243004132172	0.0621546233381	-0.658995430892	-0.86082230292	-0.535635315554	-0.542021916272	-0.911400250328	-0.674582435468	0.395479651158	1.11502355046	0.604760573975	-0.33000447134	-0.398272709118	0.338410462989	0.820188258061	0.735609138076	0.778378999568	1.25494110164	1.53590823264	1.15518971496	0.56299908223	0.362538828218	0.445800216461	0.361503776352	0.0577917901283	-0.196191086018	-0.292260109638	-0.200057898033	0.280906274671	
1	1	0.467519000687	0.107121966145	-0.0123764630601	-0.153832750471	-0.486098849322	-0.73234591516	-0.591912304402	-0.152528757292	0.351558013745	0.841191507092	1.20981467772	1.13172686086	0.460065524506	-0.266269705554	-0.250193662056	0.465378028804	0.846278435597	0.20343282098	-0.774508257075	-0.890026648084	-0.0532953934836	0.624229166545	0.327656506287	-0.494659600286	-0.897281961336	-0.658877160023	-0.33513828122	-0.304244332915	-0.243755164291	0.348133015272	1.34705795607	1.93938966337	1.4384955054	0.153983226907	-0.729840611663	-0.337052372872	0.913064590855	1.71739432325	1.33019818269	0.292512975596	-0.426799732058	-0.617653769649	-0.782396036264	-1.17578079084	-1.47071776921	-1.42013388922	-1.28439579179	-1.30736013962	-1.23858590099	-0.761039009412	-0.0992694227064	-0.0261040585649	0.0154002541444	0.0538240627478	-0.0955051297363	-0.412984027268	-0.672314570748	-0.651029187603	-0.359283939652	-0.10038978042	-0.307437784767	-1.09702391588	-1.95113126646	-2.11587859643	-1.43446717688	-0.562830979285	-0.261528334339	-0.617938523916	-1.03788010969	-0.943992427589	-0.389597613722	0.0715474354458	0.123711683649	0.170704231055	0.852403975683	2.05140319132	2.74108904226	2.10934258195	0.660525197613	-0.215835514343	0.193484541355	1.14076164384	1.3949044962	0.708884010649	-0.0313426951599	-0.00637134700911	0.631233830009	1.13609239269	1.04524954003	0.455517938443	-0.31188114108	-0.991006526596	-1.37045136543	-1.34245068511	-1.05883889586	-0.847351618186	-0.869250851822	-0.950656911085	-0.848344833938	-0.596911185584	-0.420063527535	-0.375032993784	0.580483851948	0.338796168851	-0.440621309511	-0.769522540426	-0.339294866568	0.196633137638	0.066557035986	-0.73833320546	-1.48595229294	-1.48727555956	-0.775952242184	-0.0149152378316	0.155050857594	-0.322349113571	-0.91880232983	-1.06743120543	-0.682671140188	-0.133126990526	0.243732685412	0.427295461631	0.527346588685	0.557449313299	0.494368901947	0.36292473335	0.122623153983	-0.27395944796	-0.5793056478	-0.373168686689	0.248262375366	0.50472447736	-0.0045831012321	-0.401916453596	0.498319049693	2.34479436762	3.25847699862	2.11682110837	0.108185904938	-0.769008818944	-0.281588620704	0.0616268793944	-0.56835177213	-1.21402546418	-0.872625445768	-0.20261216964	-0.496235054317	-1.57082957027	-1.8633322846	-0.60606191691	1.11701917078	1.74074506487	0.95765541284	
1	1	0.807107825314	0.592778100289	-0.223926706352	-0.521973998334	0.147149919427	0.869225553333	0.760316540094	0.23712022718	0.167392188332	0.395073162576	0.109802900459	-0.60890734597	-0.735231788624	0.0489695387328	0.746921184028	0.558792075943	0.0556847475814	0.087033728948	0.299723147992	-0.209932537813	-1.19215017601	-1.44214954555	-0.721304745918	-0.267281045889	-0.963027472904	-1.97553857957	-1.96664965207	-0.981605295667	-0.191381123485	-0.104911903187	-0.0541217839031	0.479490807639	0.947183678358	0.628849531488	-0.191719369428	-0.617537157432	-0.378663069439	-0.00933005483398	0.126640848492	0.32513787878	0.886502759421	1.48392630393	1.55667046837	1.11296814044	0.696722468354	0.518411098396	0.114679082045	-0.805179511499	-1.60275631654	-1.41799164183	-0.440811894479	0.610668978616	0.0236914354091	-1.21062479024	-1.85394222797	-1.08434623358	0.173302524313	0.416239205844	-0.345858540202	-0.669263449957	0.193580857809	1.28485334123	1.40741255131	0.707461208693	0.0958695909127	-0.219397792962	-0.655795115575	-1.08145975539	-0.815226608565	0.109714658486	0.616903668561	-0.0405995913047	-1.25383098408	-1.87213330282	-1.56933992458	-0.901677251403	-0.352030547331	0.0812842431606	0.442464915661	0.589510536572	0.565391286225	0.718651500569	1.16098742831	1.44597813433	1.20679042006	0.854500915505	1.08599729534	1.82731540216	2.2949994556	2.18684585608	2.09222511946	2.38104422682	2.38640408598	1.36520427136	-0.125927224972	-0.69805763659	-0.0184307693445	0.634010221768	0.14399330907	-0.854513352318	-0.981822738448	-0.257133806848	0.633922472604	0.684820097596	0.585055579657	-0.131747000528	-0.832368165402	-0.842678007105	-0.518392176507	-0.621306357815	-1.14646350837	-1.47282585462	-1.37136548803	-1.12306929297	-0.796464825365	-0.233773332171	0.193335983424	-0.238084363182	-1.31509637562	-1.64155666804	-0.405184002074	1.23212532637	1.40135213642	-0.0535603950133	-1.38166474164	-1.25271058732	-0.366395996415	-0.23847690321	-1.0749904913	-1.70382354963	-1.35766124474	-0.631352562484	-0.46792372737	-0.850573378138	-0.989102828316	-0.497550127845	0.130949805179	0.28187906065	0.0488850128574	0.0775572812751	0.765485684407	1.88342603716	2.90880040117	3.47986313293	3.43193442149	2.6510496099	1.23768714484	-0.278950056073	-1.25457725007	-1.53181763653	-1.4309962393	-1.14269175079	-0.593647721292	
1	1	-0.915709724555	0.0624591088102	0.707731975822	0.27267759608	-0.120401620523	0.698752080419	1.78444777364	1.21226391895	-0.858871818573	-1.90749273335	-0.366461126582	2.11836099104	2.8168069273	1.3831844234	-0.146866397876	-0.395914160244	-0.121637270948	-0.411351153824	-0.889976454917	-0.650599424216	-0.00712105968239	-0.0633684560907	-0.839723177148	-1.1274403203	-0.439984980094	0.143426884368	-0.247769195927	-0.669503930099	0.304616183419	2.14500803758	2.69507646544	1.08818124391	-0.931416322173	-1.3101891612	-0.343656918398	0.0265010641273	-0.921950789214	-1.76210759807	-1.03392841528	0.726087381741	1.73628909447	1.21530306063	0.105102676366	-0.373574468384	-0.170763631784	-0.12470688783	-0.696295442863	-1.35685722333	-1.19095355107	-0.00643102939389	1.18822045196	-0.873214486157	0.438276425581	0.151296705524	-1.71812346236	-2.79840392092	-1.44881232966	0.860873596585	1.55486662051	0.488891830734	-0.150489463175	0.769677172582	1.79297131614	1.2491636365	-0.299894894079	-1.04276098985	-0.496649666223	0.156709199758	0.0617134248252	-0.286400665432	-0.221841085219	-0.012273216164	-0.178846347026	-0.395088640437	0.048075503324	0.915368743919	1.11786548196	0.281304504528	-0.568436080462	-0.44230270087	0.0898314218025	-0.304717972696	-1.63663388417	-2.34855301468	-1.40588895467	0.22556517744	0.874961492965	0.361613604003	0.0295816296562	0.705928741369	1.59757510984	1.54879419691	0.636261509622	-0.119762638282	-0.216353028351	-0.0955105687045	-0.139501832456	-0.066377169861	0.397146460448	0.859351479603	0.741361861137	0.0371143091679	1.28611530604	-0.0612288500969	-0.140186215351	0.93831267814	1.23422349843	0.0220988703808	-1.04773849111	-0.35159945964	1.32879838199	1.89920047802	0.785918428811	-0.513925425755	-0.609786012266	0.189725703192	0.731301650758	0.591113332623	0.269185959631	0.264805125064	0.532242618445	0.753323664252	0.709084846587	0.387760116308	-0.0158936021605	-0.212294640877	-0.125588734495	-0.102152506434	-0.555810721812	-1.35622435922	-1.83299178734	-1.5445533823	-0.872605828995	-0.634771123416	-1.13830055338	-1.80767674753	-1.79610002286	-0.905689704557	0.182737190508	0.593803808167	0.166032724536	-0.403392087035	-0.357235902331	0.30081806181	0.921182514073	1.06144485167	0.904475843303	0.77898061805	0.668002217823	0.439676742171	0.285029222437	0.533106942507	1.06426962956	
1	1	-1.03392841528	0.726087381741	1.73628909447	1.21530306063	0.105102676366	-0.373574468384	-0.170763631784	-0.12470688783	-0.696295442863	-1.35685722333	-1.19095355107	-0.00643102939389	1.18822045196	1.05217121983	-0.580136807864	-2.35643528795	-2.89584122907	-2.35578892013	-1.97101909392	-2.16652830032	-1.94694291671	-0.472684986085	1.46752663191	2.25487773398	1.47315088345	0.442368343976	0.624318851603	1.97253286898	3.17680573747	3.30329302827	2.72325650436	2.32912681236	2.25728853998	1.82814659185	0.728247729009	-0.275023208364	-0.228175236137	0.625357880055	1.02838295781	0.415893128172	-0.36289476091	-0.399000653149	-0.0490530202019	-0.164889160515	-0.556726456181	-0.315813926801	0.479142106447	0.603336866842	-0.488682398802	-1.69888812273	-1.72357644248	0.705928741369	1.59757510984	1.54879419691	0.636261509622	-0.119762638282	-0.216353028351	-0.0955105687045	-0.139501832456	-0.066377169861	0.397146460448	0.859351479603	0.741361861137	0.0371143091679	-0.776513716275	-1.30745567346	-1.39364412805	-0.934438893414	-0.0517827011881	0.737002996534	0.961081261948	0.766094442502	0.677201433343	0.82686040336	0.842379460788	0.513053368198	0.129033612815	0.040448554775	0.167663842063	0.167194818018	-0.100600786508	-0.475344407543	-0.669545696665	-0.435360744684	0.179829819249	0.671844683076	0.456233528191	-0.357148819571	-0.877675035009	-0.424244074997	0.668883532609	1.46817505963	1.56885884747	1.47802159364	1.85058359524	2.70748570343	3.5170092261	3.70748420663	2.98963072571	1.53234382626	0.0712625288295	-0.470277030717	0.166032724536	-0.403392087035	-0.357235902331	0.30081806181	0.921182514073	1.06144485167	0.904475843303	0.77898061805	0.668002217823	0.439676742171	0.285029222437	0.533106942507	1.06426962956	1.23761773224	0.58432924574	-0.542352821537	-1.22259378122	-0.893510034537	0.0658824722987	0.764433881056	0.757836348907	0.47510671307	0.649050520825	1.45958507725	2.35064891723	2.6147033376	2.04780485865	1.12930580512	0.577270140299	0.610534193863	0.724966206942	0.375942940295	-0.219517914212	-0.325527831497	0.169357658851	0.322573299732	-0.618846011887	-1.87289915624	-1.91628918161	-0.639876983118	0.313945584843	-0.251236436743	-1.48831813006	-1.86749555987	-1.4415590649	-1.56678694866	-2.55535007489	-3.01447176859	-1.93031236981	-0.285523639886	0.231170258632	
1	1	-1.14513357903	-1.77864784263	-1.61241566256	-0.849255513572	-0.259297070094	-0.295465437018	-0.724023657182	-1.13000433365	-1.34879728676	-1.19342549331	-0.291075528523	1.28373695166	2.54533610091	2.38837840027	0.943817150875	-0.38631904623	-0.4432721035	0.624664583869	1.91493133117	2.77104662612	2.96461962002	2.42608848963	1.41902096238	0.670517804569	0.747238886142	1.3695277867	1.75693303455	1.55435575753	1.09753815994	0.717294794362	0.317805676923	-0.235433820632	-0.742501113861	-0.964123826616	-1.05838594771	-1.34804959107	-1.77066880046	-1.91828892278	-1.65887498044	-1.30886219252	-1.16305322141	-1.20693958725	-1.36476629842	-1.64336380675	-1.88424404556	-1.75723957339	-1.24304756318	-0.846424229821	-0.954414123348	-1.24588180424	-1.19073948849	-2.3426002099	-2.26277462312	-1.70553594052	-1.6574797789	-2.32078658742	-2.6570381033	-1.74302723725	-0.162935781907	0.637165490893	0.234209878877	-0.292184691137	0.139400090611	1.37103608211	2.53111497847	3.29293970285	4.03874675544	5.06517012921	6.21976821815	7.19650649686	7.70335392536	7.40350909747	6.26621580373	5.11668619415	5.02168887608	5.87407897348	6.32386617662	5.56419654747	4.47255000975	4.34731361303	4.93188876981	4.76270931	3.25431944954	1.33990432901	-0.0749390327129	-1.27353910195	-2.86077835664	-4.55010901486	-5.60790275124	-6.06797647684	-6.56557638962	-7.14094515092	-7.13979455364	-6.45184662999	-5.91247011592	-6.10303912367	-6.48616755029	-6.26559459697	-5.55484395663	-5.01218191658	-4.72163357824	-4.20190170941	-0.141052647446	-0.742268497186	-0.143116216787	0.716678982947	0.882508912066	0.552331036395	0.448680547978	0.675024963576	0.758232925508	0.485278695506	0.16985251886	0.126612443416	0.196566535104	-0.0368891704118	-0.740168106144	-1.69171683232	-2.51768072051	-3.06464481971	-3.58831174328	-4.42761099207	-5.44139210836	-5.91954727841	-5.32124419256	-4.10367438436	-3.41431402486	-3.7152987844	-4.03464680645	-3.04441637652	-0.759339531656	1.42846161071	2.3898144114	2.34649024177	2.11305873846	1.9181004785	1.61091205198	1.49584179261	2.05418775841	2.95437944924	3.21898851908	2.56214429756	1.88391747993	2.05220117104	2.76455644508	3.07905772296	2.76005491511	2.5105455045	2.88113203592	3.5172663483	3.5964029292	2.75578043733	1.47595040429	
1	1	-0.954414123348	-1.24588180424	-1.19073948849	-0.94183389516	-1.13494944311	-1.76791902169	-1.94211896063	-1.04836799824	0.315671248054	1.12896783603	1.27877311676	1.44976596885	1.83187515679	1.65545466838	0.381262126057	-1.07981467812	-1.10780057784	0.563075642463	2.25098543593	2.26264623453	1.00578125285	0.367551021575	1.04517830515	1.55243167352	0.388870597847	-1.70142029312	-2.62670431562	-1.76948454344	-0.7023798203	-0.866893047048	-1.74448993394	-1.95550810509	-1.29848875949	-0.732509882826	-0.850311535356	-1.36184959054	-1.85298788874	-2.0928714118	-1.68886686921	-0.42710345645	0.900392313422	1.03071573928	0.00296886988926	-0.580243245506	0.289801933332	1.64033058988	2.03219906953	1.60797494166	1.55203754092	2.06316896947	2.19458530013	-5.01218191658	-4.72163357824	-4.20190170941	-3.3968395986	-2.87075353763	-2.86379731703	-2.81267096794	-2.03769592955	-0.541862729572	1.11991496022	2.41245019667	2.99075042584	2.65115974997	1.46478102244	-0.0349728662528	-1.05998275715	-1.18851158493	-0.742454941725	-0.423315381535	-0.557462547408	-0.794092531844	-0.634343858008	-0.12680631143	0.261433728288	0.341563635835	0.386334931212	0.615546346408	0.86460374576	0.967212799001	1.12059756035	1.40971794189	1.34279220444	0.515403829067	-0.407211556423	-0.202164335129	1.18688922287	2.25585911671	1.84010658263	0.733629779181	0.591944160339	1.61141960783	2.3669039646	1.97766610787	1.30587611771	1.51508110854	2.43920018883	3.01914234276	2.80075365739	2.24710479834	1.82091716749	1.54094526203	3.5964029292	2.75578043733	1.47595040429	0.614074595348	0.607413069183	1.09544854876	1.23379643903	0.422748730522	-1.19213686174	-2.84090579898	-3.70872830503	-3.4287810474	-2.26888156171	-0.970767113574	-0.24841829431	-0.234923291297	-0.346224257121	0.11705269034	1.15015399046	2.00927468084	2.0911564722	1.64063867418	1.29427098323	1.04518635583	0.223113889276	-1.32474764872	-2.66671714217	-2.86823860895	-2.24447130317	-1.9603262704	-2.46179081012	-2.95729822706	-2.62161026247	-1.75825876053	-1.30698124112	-1.55627975547	-1.88378739537	-1.70720411017	-1.13176581054	-0.512956091748	0.107482636385	0.761037427702	1.09730297389	0.763781183032	0.185865670072	0.275090973107	1.2451575797	2.22040899588	2.3663414937	1.99869756255	2.02789781132	
1	1	-1.74448993394	-1.95550810509	-1.29848875949	-0.732509882826	-0.850311535356	-1.36184959054	-1.85298788874	-2.0928714118	-1.68886686921	-0.42710345645	0.900392313422	1.03071573928	0.00296886988926	-0.580243245506	0.289801933332	1.64033058988	2.03219906953	1.60797494166	1.55203754092	2.06316896947	2.19458530013	1.60238698163	1.11445909485	1.28245855428	1.53079057041	1.2363371296	0.742524028343	0.644117763551	0.769879794027	0.621896768001	0.332736922046	0.436907291973	0.92420343426	1.22669678393	1.03832487374	0.628236946267	0.349928240033	0.33459424451	0.667111907134	1.31191317744	1.76371281793	1.30939623924	-0.0436848080072	-1.29368219188	-1.46569485383	-0.683684158275	0.0915561463015	0.231180670797	-0.0665176420091	-0.37772673424	-0.612043115354	1.40971794189	1.34279220444	0.515403829067	-0.407211556423	-0.202164335129	1.18688922287	2.25585911671	1.84010658263	0.733629779181	0.591944160339	1.61141960783	2.3669039646	1.97766610787	1.30587611771	1.51508110854	2.43920018883	3.01914234276	2.80075365739	2.24710479834	1.82091716749	1.54094526203	1.46914195875	1.88754365661	2.69365406815	3.18491359215	2.87542152159	2.14090736608	1.64472717544	1.43743845769	1.02168647052	0.199309277562	-0.510012452424	-0.479027537073	0.136191849245	0.359004378886	-0.515230327798	-1.93901340854	-2.61750094501	-2.07405603855	-1.31438968166	-1.57104283664	-2.80971386176	-3.94136923147	-4.27127323218	-4.09238923245	-3.88432943763	-3.65401269599	-3.34245459835	-3.26657186076	-3.59100347553	-3.72952235737	-2.46179081012	-2.95729822706	-2.62161026247	-1.75825876053	-1.30698124112	-1.55627975547	-1.88378739537	-1.70720411017	-1.13176581054	-0.512956091748	0.107482636385	0.761037427702	1.09730297389	0.763781183032	0.185865670072	0.275090973107	1.2451575797	2.22040899588	2.3663414937	1.99869756255	2.02789781132	2.56479307095	2.7963839484	2.22125435802	1.37622371095	1.09765037797	1.47982474932	1.96053298371	2.08408178529	1.81250709124	1.22099606532	0.336074204822	-0.646860567985	-1.35770969135	-1.5351810185	-1.21365374672	-0.566749809099	0.242148074422	0.963033237862	1.27060799458	1.1141398044	0.879912474578	0.84964303994	0.65894351647	-0.210076087446	-1.46612348689	-2.13262684535	-1.86081286691	-1.51520924152	-1.94770261407	-2.66765163082	
1	1	-0.630059177962	-1.10933235011	-1.33463135269	-1.09522210179	-0.411196556362	0.246701869442	0.403971903845	0.116202943987	-0.0893975095501	0.207577908484	0.795249137115	0.91244884249	0.0245733633797	-1.40488559421	-2.28800130935	-2.31752997243	-2.43412230014	-3.2953529149	-3.93464339519	-3.11209850515	-1.67599823528	-1.87977136948	-3.8687832529	-4.75409367736	-2.51727623171	0.707891336238	1.32045865938	-0.637401279565	-1.62072904564	0.156798092119	2.27044384882	1.92799674362	-0.0419933958854	-0.906346496151	-0.136332248787	0.530659916494	0.439186352573	0.928143282628	2.64816066586	4.19641453754	4.3434253908	3.84381594967	3.85657265951	3.86276124271	2.64968683645	0.624308184157	-0.506252257078	-0.18243225552	0.358933847796	0.0569349792285	-0.615353741775	0.144562735274	-0.179531051255	-0.701668993329	-0.655145620299	0.121519274478	0.997898112386	1.30632435346	1.04611553671	0.81272562127	1.12499114114	1.80921865568	2.05769346678	1.27572073058	-0.100575957152	-0.909474856663	-0.599982584795	0.0333975003999	-0.103818080302	-0.934769036769	-1.46552731727	-1.37164977287	-1.40514090679	-1.91718214167	-2.01328624821	-0.937757547412	0.403158228947	0.357407739478	-1.21455386236	-2.65932750642	-2.65848595118	-1.7629951894	-1.38050747704	-1.95664842484	-2.7576222326	-2.99190335817	-2.51361116705	-1.59023286332	-0.609741151163	-0.0275326136273	-0.010655526434	-0.0641233739484	0.424402037044	1.2518562939	1.57276294106	1.11697560254	0.652028599424	0.883481645099	1.4774093931	1.69575634067	1.51357154872	1.47167946231	1.39787485554	0.827261663695	0.412480918115	0.182136727478	-0.207547257065	-0.462720250721	-0.0200031148158	0.859716388078	1.2999359144	1.16424208637	1.30736898558	2.2148494915	3.23386829282	3.58421950069	3.488799646	3.59549442977	3.7730146297	3.33850707256	2.34495492905	1.76565866053	2.1716986917	2.899718079	2.87918854936	1.91818505285	0.681933699151	-0.321674802204	-1.18056685475	-2.05431420952	-2.73608854918	-2.97457852397	-2.90180448861	-2.84176008253	-2.83991427836	-2.64319613466	-2.19289760826	-1.81355328001	-1.76729699016	-1.81124150706	-1.4729151171	-0.737668540496	-0.21879877885	-0.414287092106	-0.939200635003	-0.83068601239	0.293301406213	1.66767363745	2.22638471339	1.82416381987	1.27160046727	1.21162727893	1.42279266849	
1	1	0.472909075052	0.194918749619	0.213791670106	0.165284560522	0.0642523476452	0.393209998414	1.08220294163	1.14353280101	-0.0317440672809	-1.49102644752	-1.67463467656	-0.456701039131	0.555509092917	0.00518458501535	-1.56913899265	-2.49973861719	-2.02315701867	-0.961107647606	-0.44383667715	-0.596508872504	-0.748436835438	-0.530220733435	-0.246701883681	-0.180702421678	-0.0324899749783	0.635856561454	1.69158019136	2.54523707609	2.8758217845	2.92687576997	3.04350857753	3.16288726746	2.89852913887	1.99473308773	0.565125738854	-1.01465690146	-2.25757539551	-2.65768184895	-1.98369757097	-0.685301688887	0.240381593116	0.204209589186	-0.276720953898	-0.243544404608	0.347223863992	0.46690278742	-0.457155731895	-1.49344287965	-1.33047754721	-0.177307395619	0.347073755748	0.0960485978014	-0.157940699995	0.0164443724084	0.194851203837	-0.0574676640718	-0.452224281115	-0.343930564388	0.362347716161	1.08689623578	1.28387984107	0.940219546309	0.386757517199	-0.115049576961	-0.482409661609	-0.71572342147	-0.751150309502	-0.393831275275	0.480581016496	1.54143031822	2.00706513169	1.40824564384	0.269481060061	-0.410495622415	-0.351963751577	-0.221254806341	-0.596657357561	-1.18007983829	-1.381861946	-1.34705988533	-1.78163929684	-2.77983851336	-3.46433592307	-3.11750044876	-2.19712673916	-1.75146378308	-2.01284499243	-2.13749851523	-1.40290080759	-0.164196736208	0.661053229698	0.764175745136	0.731132758341	1.21662579809	2.21486282361	3.1941729271	3.61106073466	3.2495255875	2.2978519384	1.29860897658	0.829405002448	1.01646967328	0.584899042387	0.993322877822	1.2755054794	1.28706035856	1.0226412454	0.708818018761	0.570065376601	0.536024730778	0.388022633138	0.157500191836	0.103439744225	0.20820720972	0.0832127861688	-0.381794305349	-0.610636543656	-0.0519837462456	0.910888231342	1.29569088064	0.817428808348	0.332150478391	0.685601854679	1.52093112825	1.77880043927	1.19252530784	0.592567657002	0.587626398733	0.606184125043	-0.240879700966	-1.67602750328	-2.40007263843	-1.76858419718	-0.670269443884	-0.356164099971	-0.835639910781	-0.98642530472	-0.121771336768	1.14202871376	1.70553565382	1.2479196895	0.43209234207	0.135164288833	0.669689317297	1.6252191941	2.19443765475	1.86711157136	1.00875912114	0.49637053845	0.578724951283	0.456391516117	-0.541654163143	-1.6596335794	
1	1	-0.44383667715	-0.596508872504	-0.748436835438	-0.530220733435	-0.246701883681	-0.180702421678	-0.0324899749783	0.635856561454	1.69158019136	2.54523707609	2.8758217845	2.92687576997	3.04350857753	3.16288726746	2.89852913887	1.99473308773	0.565125738854	-1.01465690146	-2.25757539551	-2.65768184895	-1.98369757097	-0.685301688887	0.240381593116	0.204209589186	-0.276720953898	-0.243544404608	0.347223863992	0.46690278742	-0.457155731895	-1.49344287965	-1.33047754721	-0.177307395619	0.347073755748	-0.634381137143	-1.98487192706	-1.98841302323	-0.568894493188	0.712993192256	0.796321208866	0.262166853223	0.0913251642461	0.105600642061	-0.52166408795	-1.57171652894	-1.77426858171	-0.722643564393	0.21754532043	-0.362428552245	-1.89657320551	-2.52231220851	-1.50298259924	1.54143031822	2.00706513169	1.40824564384	0.269481060061	-0.410495622415	-0.351963751577	-0.221254806341	-0.596657357561	-1.18007983829	-1.381861946	-1.34705988533	-1.78163929684	-2.77983851336	-3.46433592307	-3.11750044876	-2.19712673916	-1.75146378308	-2.01284499243	-2.13749851523	-1.40290080759	-0.164196736208	0.661053229698	0.764175745136	0.731132758341	1.21662579809	2.21486282361	3.1941729271	3.61106073466	3.2495255875	2.2978519384	1.29860897658	0.829405002448	1.01646967328	1.3684816331	1.29282680268	0.831405400563	0.61556275513	0.956941479324	1.30233453004	0.869105094902	-0.252568710415	-1.1286374418	-1.17793076664	-0.858714368195	-0.950075882543	-1.53050601144	-2.01271896689	-1.97820448792	-1.51940526356	-0.842912907626	-0.0627028884719	0.817428808348	0.332150478391	0.685601854679	1.52093112825	1.77880043927	1.19252530784	0.592567657002	0.587626398733	0.606184125043	-0.240879700966	-1.67602750328	-2.40007263843	-1.76858419718	-0.670269443884	-0.356164099971	-0.835639910781	-0.98642530472	-0.121771336768	1.14202871376	1.70553565382	1.2479196895	0.43209234207	0.135164288833	0.669689317297	1.6252191941	2.19443765475	1.86711157136	1.00875912114	0.49637053845	0.578724951283	0.456391516117	-0.541654163143	-1.6596335794	-1.42658999776	0.213756798485	1.38284134282	0.544208586139	-1.36148053201	-2.08296503334	-1.06855068436	-0.108304532407	-0.728194421363	-2.11187656661	-2.4484386944	-1.53108041131	-0.84779957334	-1.27265282714	-1.83623138764	-1.24646004791	0.205109997948	0.982583069893	
1	1	-0.501950686207	-0.130682247093	0.6975221133	0.655281095702	-0.353191680099	-1.15708031007	-1.06312192572	-0.650629904451	-0.525022226131	-0.217787522562	0.864433318693	1.9465977283	1.55324279334	-0.325175111657	-1.87990325612	-1.74873216204	-0.70972115485	-0.375234090798	-0.929609582196	-1.22200767803	-0.760010148966	-0.302128773165	-0.33942726949	-0.216670754663	0.662768763328	1.6580748128	1.76988860811	1.14276553188	0.758190924217	0.877221353658	0.790676263669	0.160239570236	-0.346343882829	-0.137345795053	0.398806267091	0.611768609623	0.568393012293	0.649562441219	0.627671267893	-0.0466429691209	-1.1719367291	-1.74946904243	-1.17257755944	-0.0188961775809	0.612018996342	0.263951073101	-0.539925647729	-0.964540971371	-0.726732085862	-0.27772930153	-0.12808817461	0.976634390671	1.11057183557	0.195617192152	-0.819445604701	-1.00718736279	-0.477032542759	0.0314658580388	0.191871208114	0.293074429504	0.526032637891	0.590149725959	0.131338474232	-0.629668351518	-0.997889246087	-0.558543009111	0.357486896466	1.0391335394	1.13013101761	0.905735780093	0.8445836402	1.03240682892	1.12313453317	0.849773758355	0.428262825823	0.358118798282	0.775514671703	1.16703782115	0.908013384995	0.0559961375346	-0.629211414603	-0.584887467189	-0.12442146488	-4.57997372676e-05	-0.470577785824	-1.08309420841	-1.32375644194	-1.2343451504	-1.21898544027	-1.38313686078	-1.3741103903	-0.960022592204	-0.435749643789	-0.226003970653	-0.315711989107	-0.266636942177	0.260222708877	1.18375952416	2.03298881847	2.14482325941	1.13084880385	-0.497152506714	0.859775939159	0.468512594451	0.24454305821	0.306670382317	0.472980814694	0.582023026846	0.486421175844	-0.0173409682558	-0.910647006999	-1.74139684072	-1.96029480558	-1.43320944492	-0.519708080556	0.257381617518	0.526638505893	0.272868753496	-0.126222263165	-0.225651416978	0.0473017464125	0.416029527128	0.678453455214	0.874270896746	1.01820574819	0.986528795674	0.792712383497	0.659296221978	0.570029865143	0.113555929394	-0.775119456913	-1.24013067706	-0.39741280161	1.18412325219	1.78712225828	0.696042415293	-0.729512717137	-0.819579156658	0.172436736556	0.574584851331	-0.230872246863	-1.02566967446	-0.629655359214	0.492548807492	1.09140128084	0.909778864301	0.761488105948	1.15336742559	1.55900701286	1.15670412897	-0.150193700613	-1.62832199695	-2.45394164138	
1	1	-0.115734584295	0.129203911376	0.0886988419497	-0.1861469036	-0.343157192588	-0.452395395513	-0.967424477863	-1.89805415166	-2.51506834784	-2.15579044208	-1.0972604466	-0.316238931355	-0.427943658135	-1.10479045271	-1.5485881804	-1.28341068515	-0.46679709972	0.328836568609	0.572687805679	0.145831889881	-0.553649827112	-0.883844275221	-0.484859959327	0.364664000177	1.01677900031	1.14012429547	0.986673822836	0.927294758616	0.927632990382	0.732838730605	0.449673799604	0.531291265991	1.02257530905	1.25599532208	0.644763838469	-0.462220361768	-1.12533225641	-0.92500629937	-0.33248007204	0.0468889948304	0.157688414545	0.255331131534	0.372794416629	0.392759454157	0.379282893796	0.429422511967	0.374015676442	-0.00751171319913	-0.529908475945	-0.631736618377	0.0415507680028	-1.94979235852	-1.3606674879	-0.145204491676	0.0365060634182	-0.95384760376	-1.78927993156	-1.60113190745	-0.930983048883	-0.626751628526	-0.542508631169	0.0220566034013	0.973095797645	1.3360655596	0.619873577831	-0.391959822587	-0.58364241067	0.157493018227	1.01531405498	1.46125793462	1.7106118624	1.88969143074	1.5569884006	0.51742790272	-0.476349525092	-0.54599001702	0.0661430875857	0.294845792216	-0.220777386234	-0.696124800059	-0.516935814374	-0.165226655332	-0.281964579889	-0.504623741155	-0.0664389555172	0.808287184841	1.07154207184	0.433060967414	-0.124584747891	0.257034224259	1.08202542971	1.16974320362	0.142013717787	-1.29607331601	-2.24721072485	-2.31125551901	-1.59878094829	-0.572912888193	0.115115421889	0.0837566998207	-0.312952570963	-0.299754307062	-0.281232204383	0.271174732315	1.03226571262	0.953670301266	-0.0967724440851	-0.945459060958	-0.522100083481	0.669231950223	1.08456285881	0.0637657853352	-1.3966485907	-1.9681423976	-1.45811077771	-0.585902576977	0.168814904331	0.865804373368	1.48452612644	1.69355058447	1.40794905801	1.10055228069	1.21587210646	1.53838075146	1.49160489563	0.918854474803	0.174676000507	-0.451461038192	-1.00643802268	-1.52170055973	-1.75379746533	-1.46074520781	-0.803091622657	-0.25193285718	-0.100377168247	-0.20162049567	-0.232171768626	-0.11469319442	-0.026278951116	-0.00102807135617	0.196292350291	0.656336356238	1.0249567184	0.906267737131	0.443681264673	0.113495092935	0.0254735843372	-0.116137025942	-0.331073690611	-0.203192553783	0.395179758307	0.860979045505	0.58550717002	
1	1	0.449673799604	0.531291265991	1.02257530905	1.25599532208	0.644763838469	-0.462220361768	-1.12533225641	-0.92500629937	-0.33248007204	0.0468889948304	0.157688414545	0.255331131534	0.372794416629	0.392759454157	0.379282893796	0.429422511967	0.374015676442	-0.00751171319913	-0.529908475945	-0.631736618377	0.0415507680028	1.20432903551	2.16611537994	2.36454245166	1.71734577834	0.666148647151	-0.114716188731	-0.205114129961	0.233316366977	0.699774505392	0.8525239849	0.619870845687	0.0345905327753	-0.712375223071	-1.19167114227	-1.11017470384	-0.720111188132	-0.475430139957	-0.330897798816	0.129829964217	0.763389713166	0.704002648814	-0.417030784545	-1.56879025905	-1.37775901682	-0.00448121151294	0.892114227793	0.297633420569	-0.865012070065	-1.14499463337	-0.530167500601	-0.165226655332	-0.281964579889	-0.504623741155	-0.0664389555172	0.808287184841	1.07154207184	0.433060967414	-0.124584747891	0.257034224259	1.08202542971	1.16974320362	0.142013717787	-1.29607331601	-2.24721072485	-2.31125551901	-1.59878094829	-0.572912888193	0.115115421889	0.0837566998207	-0.312952570963	-0.299754307062	0.378481213896	1.12352672745	1.25581089421	0.866610681261	0.624447395391	0.876050583982	1.30129748349	1.41057546491	1.13252446635	0.763164960483	0.442340243179	0.00646546856828	-0.577638181575	-0.933803030134	-0.715516484812	-0.19836434825	-0.0812540961056	-0.648557814003	-1.387744679	-1.62749776522	-1.34127230625	-1.02461085725	-0.911730495933	-0.729926179157	-0.334481241998	-0.0987099903411	-0.30899456791	-0.524255395834	-0.0983345566355	0.807104769639	-0.803091622657	-0.25193285718	-0.100377168247	-0.20162049567	-0.232171768626	-0.11469319442	-0.026278951116	-0.00102807135617	0.196292350291	0.656336356238	1.0249567184	0.906267737131	0.443681264673	0.113495092935	0.0254735843372	-0.116137025942	-0.331073690611	-0.203192553783	0.395179758307	0.860979045505	0.58550717002	-0.162885124474	-0.55570216096	-0.285270735284	0.162696918664	0.325295298927	0.334919577974	0.470355470096	0.626659699473	0.554796210803	0.312612303165	0.143085007019	0.0875050369827	0.0376884466786	0.0276452844951	0.134574251781	0.18848442385	-0.0652722979289	-0.524227264413	-0.817538898526	-0.830157053966	-0.783155400072	-0.82260952896	-0.878017409865	-0.926797750744	-0.983449811423	-0.863262296932	-0.425776780941	-0.0168462812026	-0.0866316718476	-0.307036573388	
1	1	-0.619104522195	0.399750316975	0.850631122215	0.00947770029174	-1.20258149458	-1.55759904761	-1.02147343687	-0.389369667254	-0.0295481097437	0.252541038357	0.425361834263	0.164721415986	-0.420249950085	-0.751470381698	-0.662902884807	-0.69502920993	-1.23842613238	-1.86680188235	-1.92663234978	-1.40337250642	-0.759692234369	-0.174819490414	0.485933306867	1.05399974563	1.12619112405	0.807610190058	0.762104747272	1.30895840587	1.94158503724	2.06935346119	1.77484145899	1.42872370436	0.998758805749	0.278555639422	-0.447825279323	-0.600570985199	-0.147303511361	0.310501510574	0.385934310669	0.330131145298	0.438418770382	0.526556828089	0.271728388168	-0.233805922104	-0.572965107501	-0.526958808944	-0.258410724076	-0.00596944199557	0.142339115063	0.146591233621	-0.069122736602	1.20765656566	1.60153775192	1.29471245906	0.223286727584	-0.809281715472	-1.04482696995	-0.580625778003	-0.032231933987	0.235158956793	0.234075128982	0.0400706404797	-0.240702332905	-0.39056062727	-0.318313485281	-0.225300533675	-0.242005159706	-0.0967481735673	0.468683064821	1.03188111057	0.775451790068	-0.400536181393	-1.54338413585	-1.74765607389	-1.2135310077	-0.714927903238	-0.408226130666	0.14300405706	0.910670489505	1.17296743443	0.622022391181	-0.0150104494358	0.0258897556825	0.438724786994	0.374731244255	-0.198577640706	-0.423920709107	0.100147776859	0.655136257084	0.405165025422	-0.436642885631	-0.895093443409	-0.434317791611	0.461830480945	0.860640657104	0.386947241144	-0.374917786391	-0.502632587508	0.228106750795	0.978562525974	0.697717743315	-0.638692799891	0.830398117086	0.0371842627313	-0.584970698281	-0.121643897345	0.597719643839	0.284377109925	-0.746107704749	-1.03763378482	-0.242164021762	0.428756139528	0.201598204083	-0.0584950061199	0.616720612781	1.543132233	1.31976764207	0.0311093935675	-0.743261916621	-0.187244299147	0.639542401058	0.407267797449	-0.680291662946	-1.43580061774	-1.44239133616	-1.27125888375	-1.25424070103	-1.02682698468	-0.371872880696	0.314190415383	0.646400598051	0.69873578967	0.532784742169	-0.067395063112	-0.94801031253	-1.28410115396	-0.609850914339	0.250777577397	0.118213035498	-0.827270776656	-1.22703711195	-0.496493258321	0.37951101281	0.395377787233	-0.00989956513625	0.184373339074	0.846756198699	0.914089165594	0.163208693126	-0.396689303749	-0.096239163122	0.46671041261	0.510013920771	
1	1	0.385934310669	0.330131145298	0.438418770382	0.526556828089	0.271728388168	-0.233805922104	-0.572965107501	-0.526958808944	-0.258410724076	-0.00596944199557	0.142339115063	0.146591233621	-0.069122736602	-0.460717887415	-0.799013649247	-0.910202386487	-0.877065679737	-0.899179264824	-1.02728189874	-1.11808856615	-1.01852410701	-0.711430021371	-0.319061257156	-0.0308737772931	0.00447778401611	-0.197904991195	-0.475213058479	-0.669484352385	-0.647850652515	-0.223762474599	0.65496580262	1.58643806458	1.913133127	1.45980047962	0.813818707813	0.567764681845	0.576535441114	0.349383276509	-0.0255948374483	0.113221255083	1.00922654886	2.0105772783	2.35565630442	2.03952579	1.57752488067	1.19590346112	0.720688767786	0.115951964567	-0.353859668686	-0.478523922462	-0.339110816797	0.405165025422	-0.436642885631	-0.895093443409	-0.434317791611	0.461830480945	0.860640657104	0.386947241144	-0.374917786391	-0.502632587508	0.228106750795	0.978562525974	0.697717743315	-0.638692799891	-1.86328304393	-1.89597358212	-0.979788347722	-0.299371996548	-0.476634309074	-0.912016943191	-0.687296971436	0.245149232192	1.09106269684	1.21468697574	0.758753720433	0.268529458874	0.0191138492468	-0.128674792103	-0.334012481049	-0.406955831829	0.0256090824275	0.888978614192	1.40505202964	0.835811173723	-0.470221647137	-1.18881988991	-0.520603937059	0.774754374092	1.31312670361	0.829090980755	0.340349332837	0.571201861342	1.02311945605	0.92987125046	0.452827975274	0.324300145996	0.670732078083	0.891652318303	0.649809341436	0.27522988295	0.109056864624	-0.00896319714407	-1.22703711195	-0.496493258321	0.37951101281	0.395377787233	-0.00989956513625	0.184373339074	0.846756198699	0.914089165594	0.163208693126	-0.396689303749	-0.096239163122	0.46671041261	0.510013920771	0.234897235936	0.277268171404	0.538806387816	0.321553580478	-0.516522856069	-1.22295205884	-1.05478660987	-0.115833000238	0.801558319404	1.01303448475	0.59698261898	0.326741449485	0.778790791353	1.48919743423	1.43120574047	0.498031669897	-0.0991385803299	0.552164927577	1.53935772716	1.15401299819	-0.691467759497	-2.13764989917	-1.76446828631	-0.3537934072	0.325969335043	-0.234083175291	-1.05334470831	-1.23248277612	-0.862754694361	-0.474493646504	-0.362071070953	-0.613340942354	-1.19371620408	-1.73394870073	-1.68251784147	-0.949621362014	-0.16498088502	0.0422107531824	
1	1	-0.774314009689	-1.07748296564	-1.69218861123	-1.67735444861	-0.932442485524	-0.408719533659	-0.746806828396	-1.3346284627	-1.17081232255	-0.225613062949	0.631946570936	0.8497683841	0.730605805689	0.753609399115	0.940035985733	1.01577322745	0.786590457571	0.192144691219	-0.68083811852	-1.44481550897	-1.5570364145	-0.884515578991	0.00750667484412	0.394636770035	0.128683693236	-0.28794199741	-0.309790457202	0.0870059068319	0.41830245233	0.233484067618	-0.302131341288	-0.531646209597	-0.102234861189	0.561697020147	0.783868669537	0.472431058747	0.139062709932	0.162462091965	0.376958410673	0.464122084734	0.461107667614	0.687987617041	1.3030687798	2.0829220404	2.54441530027	2.22297325528	1.07216067199	-0.256838092242	-0.838652361457	-0.442622346968	0.130352849709	-1.43183028024	-1.30673850508	-0.977836703568	-0.740743268097	-0.72387568799	-0.839207884409	-0.847943645878	-0.541221275231	0.0168181631494	0.462261177619	0.510496855897	0.348394121658	0.403322397971	0.673066384167	0.637068198964	0.000252304887423	-0.750583262232	-0.847642368904	-0.22075519196	0.367427401338	0.25629852714	-0.391484673363	-0.96522562248	-1.13920131955	-0.970565338817	-0.539684594137	0.0662804395587	0.533160210552	0.572750942825	0.395225643032	0.481432727473	0.754605910476	0.547017955356	-0.270964960986	-0.749669806649	-0.0920367135965	1.02884432164	1.24129380158	0.383309396497	-0.336467283333	-0.193987386167	0.0964929811224	-0.200431582343	-0.488215945003	0.132094651571	1.14181239207	1.18069158154	0.134845143179	-0.61261500147	-0.244728755738	0.36250731533	0.159168122452	0.13601989537	0.183469937422	0.308883244124	0.60228194246	0.941071014804	0.986649322525	0.61439416552	0.194120744954	0.181411109079	0.480094417716	0.574246032818	0.387082305345	0.523733294448	1.31261911641	2.00374416557	1.57259560604	0.215597039289	-0.660842454637	-0.161385069801	0.915500383387	1.05348292525	-0.123557980349	-1.45596850543	-1.66147377837	-0.72498359838	0.291782426194	0.548056908582	0.242375982791	0.124216002527	0.461616573378	0.784757303082	0.575288369174	-0.150294225791	-0.991546089266	-1.52169787287	-1.40459436349	-0.632923899593	0.127535310192	-0.0212232357543	-1.00730771891	-1.54645467215	-0.774288218516	0.357546187851	0.309706070184	-0.713540945556	-0.98048520077	0.121479157144	1.10947655603	0.703799543377	-0.217553172023	
1	1	0.0071641044347	-0.1058067941	0.499322519259	1.52991680108	1.70248355593	0.643786242458	-0.364038307001	-0.04075783088	1.22165118671	1.98435494151	1.59922517607	0.679217091675	-0.0201307219237	-0.413745494392	-0.721357212417	-0.924692461145	-0.887781144791	-0.678707359101	-0.479040748528	-0.403988879607	-0.543157115115	-0.965983013119	-1.49140928637	-1.658361184	-1.20530916542	-0.499015516881	-0.2637767115	-0.816319728038	-1.64815048868	-1.83311965709	-0.923449601383	0.519071033114	1.37245051153	1.06792664434	0.239863843971	0.0470192532869	0.836125346878	1.80397728074	2.09977050522	1.8532276774	1.77700315287	2.02634186227	2.03190432634	1.48127521523	0.808867839695	0.395932947504	-0.130150997566	-1.15321221921	-1.95735925938	-1.31055129097	0.639190881871	-0.384276946991	-0.350843407892	0.318075138342	0.572537458554	-0.153726189178	-1.000653548	-1.00460439247	-0.441294002219	-0.0882936258669	0.0822558085435	0.498992130513	0.747533121511	-0.0889109721869	-1.83131495692	-2.98977013928	-2.5266500149	-1.05637676942	0.118532173665	0.491890109238	0.385791036613	0.144179676317	0.0188571458356	0.466911556926	1.72169367227	3.13810943068	3.66334794388	3.03371722646	1.96031406207	1.11164565761	0.496347285988	-0.0322824874659	-0.291738773278	-0.146777767343	0.0181218169018	-0.268027671122	-0.849404692559	-1.14402597233	-0.99672805264	-0.887586496571	-1.17945956258	-1.50388273659	-1.21809705208	-0.317739571756	0.451433447548	0.417044229715	-0.267878771559	-0.777250591753	-0.511767533397	0.236872730839	0.57044010214	-0.0456120935109	0.269347698474	0.508488514288	0.68435026288	0.643287884159	0.346923408749	0.103000698531	0.220950487472	0.435597291231	0.161518909049	-0.523958175389	-0.751067514715	-0.0975438240326	0.549193103567	0.0651864099057	-1.25200972369	-1.90535362288	-1.14955064082	0.0861583607801	0.562874829082	0.26526311423	0.00883091460719	0.131445782061	0.405324609847	0.883154703919	1.84674525729	2.92309769046	3.10982233209	2.05395777619	0.679016476445	0.104323328576	0.315501689445	0.354643720369	-0.39287790629	-1.45706392436	-1.80660790891	-0.931334900231	0.536899210476	1.23630747456	0.371309909062	-1.27434111687	-2.01602191094	-1.18837615475	0.0472035443682	0.186104858111	-0.722646170293	-1.30080105479	-0.769620532533	0.134441748243	0.326364226519	-0.224383612583	-0.667648780384	
1	1	2.09977050522	1.8532276774	1.77700315287	2.02634186227	2.03190432634	1.48127521523	0.808867839695	0.395932947504	-0.130150997566	-1.15321221921	-1.95735925938	-1.31055129097	0.639190881871	1.97184385262	1.16881649836	-0.93504666988	-2.25687557167	-2.08620124059	-1.54108766012	-1.5421892693	-1.57697942778	-0.958764545642	-0.240317944815	-0.388987420589	-1.13578944781	-1.25884670931	-0.379542866944	0.555481324968	0.721035048794	0.369477332715	0.0869355586267	-0.0311001640029	-0.00530153788221	0.460184076573	1.29279192593	1.57362653528	0.679242244312	-0.505918089048	-0.538987713947	0.591127404801	1.45881256901	1.27330511806	0.819286883186	0.99542904537	1.40843048958	1.15452444636	0.27693409796	-0.406417554795	-0.551979382978	-0.486350175676	-0.342395400989	-0.887586496571	-1.17945956258	-1.50388273659	-1.21809705208	-0.317739571756	0.451433447548	0.417044229715	-0.267878771559	-0.777250591753	-0.511767533397	0.236872730839	0.57044010214	-0.0456120935109	-1.14690813071	-1.70743241701	-1.23483435335	-0.285004193722	0.271997695334	0.285268704502	0.272022486955	0.416633860448	0.214981193786	-0.588330707773	-1.23732971492	-0.752719669158	0.668576510752	1.68319488339	1.41015658764	0.472942156253	0.045857227158	0.31796300206	0.476765265061	0.0237206370908	-0.517209333217	-0.364669964708	0.444012449745	1.07820853438	0.871619627795	0.0160468119013	-0.678608236666	-0.610810627868	0.0588340551468	0.605124037761	0.502806926023	-0.0164149660036	-0.261011051806	0.034261001276	0.343941617149	0.0563107419772	-0.599403412451	-0.742628796145	0.371309909062	-1.27434111687	-2.01602191094	-1.18837615475	0.0472035443682	0.186104858111	-0.722646170293	-1.30080105479	-0.769620532533	0.134441748243	0.326364226519	-0.224383612583	-0.667648780384	-0.450369216397	0.129055271829	0.423206191342	0.177908053864	-0.226890309759	-0.188138935333	0.452546105736	1.1556054842	1.25760707029	0.817385668069	0.612636831742	1.10545410995	1.73158795216	1.52724732485	0.306298681401	-1.07007547329	-1.53644322117	-0.819037835716	0.273723993797	0.51242258018	-0.581755608554	-2.04039037907	-2.25981219813	-0.858231181697	0.678362837993	0.749856229317	-0.318433691828	-0.797432796956	0.0259354048705	1.00064160124	0.902589173925	0.0676327903513	-0.418960964226	-0.395551526368	-0.508738157545	-0.779333445665	-0.437480913914	0.702780498158	
1	1	-0.41004183282	-0.343610830222	-0.756813377412	-1.27711486515	-1.59437919815	-1.60947127315	-1.3396896817	-0.865789938146	-0.323701100135	0.193922347108	0.696960827898	1.17131185851	1.44445293459	1.2966070739	0.737821433469	0.0775856340115	-0.313392911307	-0.304411059707	-0.100090789054	-0.0370318483023	-0.214791622447	-0.371316406009	-0.206702604151	0.249830735874	0.754284837478	1.24726366045	1.74332440183	1.85799366639	1.08587381611	-0.222438817694	-0.80762461111	-0.00417683745314	1.09955272441	0.83633847104	-0.795517743355	-2.01650316381	-1.60341677022	-0.403153462087	0.115668536465	-0.0772328079735	-0.00750278175735	0.415425908338	0.329002879447	-0.381019151711	-0.665144504306	0.0119503008868	0.741974266296	0.597071246177	-0.0126679267279	-0.284792316501	-0.444088530615	0.208510454536	-0.778409944598	-1.35223972869	-0.977334095159	-0.240815451309	-0.109854764955	-0.566821768692	-0.657767306613	0.0666448015892	0.850488997414	0.779787858774	0.0022147792588	-0.599780504554	-0.632127027623	-0.494953431408	-0.583241478004	-0.734456380807	-0.622118104354	-0.286339230158	-0.00929644421103	0.0708420126682	-0.0270631449964	-0.324406416492	-0.773157840989	-1.02915697713	-0.627283297066	0.400637698652	1.25890643979	1.11597436913	0.112537714544	-0.707674620203	-0.57979957932	0.15715682787	0.631243599707	0.56132787066	0.373555869644	0.385678203821	0.431626804017	0.410862750381	0.617953141583	1.11187068363	1.25743005496	0.561393843841	-0.395921381711	-0.563775539321	0.134974482434	0.754605854942	0.771701727817	0.654387071542	0.680538750973	0.210914438824	-0.00321607856159	0.0148978985813	0.38292620832	0.594031182251	0.269049166998	-0.495076493494	-1.19134172035	-1.33737855063	-0.935981854301	-0.530033860499	-0.66004438878	-1.21078845423	-1.45797850406	-0.946644496051	-0.168238697511	0.0197992640095	-0.441792214342	-0.71877264862	-0.248903788206	0.45336121476	0.505091959983	-0.144545052809	-0.715986295809	-0.707787181874	-0.44652346532	-0.418342256698	-0.441023705656	0.0599245297224	1.02828037069	1.59142256651	1.17910682402	0.398746457981	0.31953216126	1.06630041299	1.66914665713	1.38680497817	0.612108396271	0.15592405682	0.0713560068848	-0.168667433642	-0.537857297835	-0.327823533467	0.609460901652	1.24509279752	0.621228726881	-0.671592054546	-1.05938807609	0.00244462006871	1.29819502187	1.40224004217	0.387908088047	
1	1	-1.11349857317	-0.81370644604	-0.642769101637	-0.229048010938	1.0696315425	2.50026465523	2.50887188485	1.01408123368	-0.14919070075	0.462893516846	2.10118923067	2.89668983306	2.05734906278	0.349822913137	-1.11347579774	-1.80035346975	-1.70414619717	-1.13831073413	-0.669358469382	-0.75944028285	-1.30076696352	-1.67249441693	-1.38549571268	-0.564266136737	0.252712148869	0.634024895458	0.485763998452	-0.00180812951306	-0.414788997291	-0.288043184659	0.477700244445	1.35687759564	1.57284685197	0.867162757439	-0.21902751258	-0.867860837875	-0.764259386079	-0.388323847542	-0.493126601386	-1.15578500711	-1.50013775577	-0.689405837788	0.828814825831	1.59653337277	0.894128755176	-0.282352254772	-0.455776266257	0.434964525118	1.03664579063	0.453191951685	-0.610257986208	-1.02499537295	-0.168146463119	0.224413469206	-0.151543354818	-0.768993641203	-1.08529554668	-0.903015142948	-0.224172511546	0.648124521828	1.01021169318	0.419364569345	-0.570751807755	-0.904160291288	-0.269691111505	0.627222848617	1.09440819708	1.24264133153	1.5284204733	1.9755208674	2.15420294272	1.73163372306	0.900001162249	0.292115012848	0.416242071003	1.0675122305	1.46636834662	1.15423326613	0.57989050256	0.491986808648	0.820780563834	0.688227380574	-0.328952749286	-1.45201739952	-1.59153062024	-0.727663698607	0.173081457609	0.494907155569	0.58478520657	0.904674969939	1.19368555062	0.890357977121	0.0514459067219	-0.665323335859	-0.787213485085	-0.461897385477	-0.174888003125	-0.261188284416	-0.661265928382	-1.01227882962	-0.961487378433	-0.509360308014	0.893511803918	0.780533369333	0.417601526369	0.591068493227	1.32216453145	1.65629920569	0.865295739303	-0.565908960172	-1.54654515099	-1.65031785816	-1.34462235011	-1.15923751904	-1.16361522349	-1.26105958949	-1.44120834737	-1.49613234628	-0.997760293431	0.0140412972117	0.649930402607	0.0913784169568	-1.17256529574	-1.71060163015	-0.848333862457	0.521240119977	1.05853358717	0.50816283812	-0.198359624618	-0.162245243196	0.483638922622	0.838265983615	0.331340572045	-0.546311079089	-0.803130259538	-0.255056425652	0.162106007888	-0.278083185132	-0.842829735937	-0.131739153863	1.84493956208	3.21440252404	2.44212285999	0.393166574909	-0.687869628292	-0.0317941988649	0.907410479978	0.695669375889	-0.196815257315	-0.409089049705	0.269153018283	0.881526792668	0.920020305007	
1	1	-1.30076696352	-1.67249441693	-1.38549571268	-0.564266136737	0.252712148869	0.634024895458	0.485763998452	-0.00180812951306	-0.414788997291	-0.288043184659	0.477700244445	1.35687759564	1.57284685197	0.867162757439	-0.21902751258	-0.867860837875	-0.764259386079	-0.388323847542	-0.493126601386	-1.15578500711	-1.50013775577	-0.689405837788	0.828814825831	1.59653337277	0.894128755176	-0.282352254772	-0.455776266257	0.434964525118	1.03664579063	0.453191951685	-0.610257986208	-0.946167243425	-0.514135002582	-0.290705018341	-0.658797906483	-0.818608368638	-0.0734040967605	0.961860082747	1.11929326845	0.389021895929	0.0213524634862	0.737847695302	1.63714054489	1.43283333719	0.246901971986	-0.576734418408	-0.289814543159	0.378279119485	0.335052760733	-0.469667906886	-1.15976899254	1.73163372306	0.900001162249	0.292115012848	0.416242071003	1.0675122305	1.46636834662	1.15423326613	0.57989050256	0.491986808648	0.820780563834	0.688227380574	-0.328952749286	-1.45201739952	-1.59153062024	-0.727663698607	0.173081457609	0.494907155569	0.58478520657	0.904674969939	1.19368555062	0.890357977121	0.0514459067219	-0.665323335859	-0.787213485085	-0.461897385477	-0.174888003125	-0.261188284416	-0.661265928382	-1.01227882962	-0.961487378433	-0.509360308014	-0.0604354880524	-0.0545612756053	-0.513393645189	-1.01602832424	-1.18622934687	-1.09091240731	-1.02272668989	-0.991806900185	-0.668662444622	0.0440205780896	0.606979995698	0.349094037127	-0.614885086858	-1.31567589173	-1.04878010739	-0.279368053689	-0.0283590598081	-0.522673745062	-1.00706765102	-0.891929509167	-1.17256529574	-1.71060163015	-0.848333862457	0.521240119977	1.05853358717	0.50816283812	-0.198359624618	-0.162245243196	0.483638922622	0.838265983615	0.331340572045	-0.546311079089	-0.803130259538	-0.255056425652	0.162106007888	-0.278083185132	-0.842829735937	-0.131739153863	1.84493956208	3.21440252404	2.44212285999	0.393166574909	-0.687869628292	-0.0317941988649	0.907410479978	0.695669375889	-0.196815257315	-0.409089049705	0.269153018283	0.881526792668	0.920020305007	0.871582586504	1.10190547093	1.13776364917	0.489128099007	-0.485283971831	-1.09872451884	-1.2618238822	-1.3477474632	-1.39961177035	-1.08278947595	-0.444801523878	-0.163359299214	-0.695912408445	-1.49355481826	-1.51974056877	-0.571823341838	0.352972491288	0.249636551921	-0.661294590984	-1.26997521376	
1	1	0.451596564426	0.187048987523	0.198578585322	0.845414590016	1.64517799872	1.72333209516	0.852849151777	-0.291923571164	-0.924872517484	-0.871097769476	-0.422572776959	0.179044952932	0.801490190618	1.14464438829	0.868289823003	0.113829562717	-0.461408037555	-0.406468448859	-0.0744249340537	-0.174693965988	-0.759592664707	-1.07932402509	-0.580032890779	0.334873361185	0.832310094115	0.701103087934	0.459410296867	0.466863748919	0.432098560563	0.0604062522222	-0.252933259801	0.103762232069	0.950763315271	1.26746523552	0.321896590972	-1.36598867602	-2.40646968614	-1.93680317376	-0.532093527423	0.390805383666	0.0624754997685	-0.864199612836	-1.14487608271	-0.453352838475	0.281634844049	0.138160518661	-0.579187594607	-0.803057524817	-0.151486008973	0.664205446781	0.972663374429	-0.0251398513568	-0.127695812681	0.164835326211	0.201629416724	-0.0800752179853	-0.173502896958	0.0397417838142	0.0824926965185	-0.242418890682	-0.452030357899	-0.188003466309	0.0852379574162	-0.271755278895	-0.996864555	-1.12138693856	-0.267527607582	0.824679071431	1.27211400427	1.07187636278	0.819286864352	0.757145220888	0.620804140439	0.312215402048	0.197969471105	0.529947987375	0.909187302533	0.712362692197	-0.0525433923622	-0.652352720666	-0.460991395903	0.286369578458	0.736698906467	0.424034753434	-0.13374491898	-0.062529617627	0.735777818754	1.39720928403	1.14626563745	0.233910186554	-0.421651445186	-0.340481478107	0.126394946036	0.464703851924	0.589584793698	0.619785122777	0.442181702624	-0.0423179654171	-0.531159043723	-0.694180884727	-0.804783899659	-1.37636570884	0.609689748613	0.699033252631	-0.0357751253468	-0.433627440619	0.139999926515	1.04364795632	1.44270565672	1.34321364325	1.05238922556	0.340409786825	-1.00208590226	-2.21955592519	-2.20581429284	-1.00076521956	0.173040574869	0.511357291638	0.452228943465	0.592814448746	0.66730324059	0.224627136022	-0.367399544004	-0.424909068909	-0.125290749339	-0.26483696837	-0.86196320872	-0.926773254722	0.0298378956584	1.01142065189	0.736367011137	-0.534260378154	-1.14944361807	-0.173571672954	1.29346301416	1.44064006854	0.139893891088	-0.81072851138	-0.0650680892509	1.42090214064	1.62929249026	0.133102712892	-1.45210141115	-1.71313317901	-1.11786312263	-0.898368574474	-1.12089412232	-0.826208035842	0.223480948752	1.06100034083	0.981609908753	0.555150407471	0.643487454793	
1	1	-0.843121734506	-0.340133789599	-0.377270306647	-1.12729568001	-1.44783877162	-0.465479878352	1.11890370253	1.83810943804	1.28146910284	0.493274334666	0.554996874886	1.3097070089	1.75355212286	1.34879133537	0.605190464432	0.366565001174	0.714054281081	0.858375787878	0.187658914215	-0.838548000498	-1.22587268369	-0.78266535595	-0.393286885031	-0.78349161024	-1.52212773876	-1.68833537326	-1.11670314482	-0.406796516416	0.024075679957	0.140311959052	-0.332090909512	-1.66144693105	-3.07031952519	-3.03275767178	-1.29964230803	0.295583044532	0.084526550322	-0.995752828281	-0.521308801462	1.96587270774	4.09042597559	3.75189575662	1.79319152933	0.525134941296	0.52282280657	0.355930605109	-0.796550878588	-1.7445068576	-1.08816167771	0.681821122193	1.85247598664	1.29865930729	0.827371753404	-0.594599759243	-1.02159168514	0.234259058198	1.58185449848	1.34360433121	-0.0162587709062	-0.647016344986	0.192570988224	1.34128020943	1.37811812064	0.253858346951	-0.941428529627	-1.28926543098	-0.78684671138	-0.0601581593233	0.396101167942	0.66216302597	1.05805059061	1.41259891512	1.10452647091	0.0851155521132	-0.69101131228	-0.485156132944	-0.0491247082869	-0.703429201384	-2.23423917135	-2.90500000375	-1.95576433454	-0.864904965048	-1.24479827648	-2.51005853847	-2.87743340403	-2.04349247686	-1.32093958339	-1.2598590609	-0.724543102462	1.11824759332	3.17655237281	3.79525503731	3.03170843596	2.37201116864	2.55428090469	2.83548585611	2.50370439906	1.98222685702	1.94208000894	2.04852302935	1.41346492154	0.00639119927212	-1.58607492868	-0.971145658027	-0.61026269748	-1.08052742263	-1.63871629507	-1.23406775739	-0.165853279129	0.148637505589	-0.810668357448	-1.7501163902	-1.21614873335	0.444771120551	1.57784427136	1.36977458621	0.615795754544	0.366895025935	0.704826107338	1.07916648488	1.15031778293	0.909756161075	0.51632615636	0.323025406128	0.610657247167	0.999510189068	0.651607434667	-0.499995829711	-1.30968397836	-0.833373701601	0.238007569407	0.476552873839	-0.134262170769	-0.156306233653	1.03548122833	2.17172637356	1.88414067477	0.547659236343	-0.613444487896	-1.37864693675	-2.25807998121	-2.92186545642	-2.44744681571	-1.19555975369	-0.86702984367	-2.09724603122	-3.22398789134	-2.44334926763	-0.326764200769	0.974087102485	0.593486062411	-0.285518750575	-0.465314490415	
1	1	0.024075679957	0.140311959052	-0.332090909512	-1.66144693105	-3.07031952519	-3.03275767178	-1.29964230803	0.295583044532	0.084526550322	-0.995752828281	-0.521308801462	1.96587270774	4.09042597559	3.75189575662	1.79319152933	0.525134941296	0.52282280657	0.355930605109	-0.796550878588	-1.7445068576	-1.08816167771	0.681821122193	1.85247598664	1.76044961488	1.35299834358	1.51676991737	1.84127159021	1.49037360792	0.613851124596	0.0726333985693	0.0678043733651	-0.0450600382605	-0.543769435379	-0.879018431576	-0.712848823671	-0.611507879679	-1.14614071563	-1.89535739046	-2.03117001806	-1.50930736494	-0.975189349775	-0.709208120565	-0.422031514195	-0.0359276525375	0.158902585136	0.227398763202	0.585798394846	1.05486123624	0.85083115463	-0.0161103370429	-0.335373998715	-2.90500000375	-1.95576433454	-0.864904965048	-1.24479827648	-2.51005853847	-2.87743340403	-2.04349247686	-1.32093958339	-1.2598590609	-0.724543102462	1.11824759332	3.17655237281	3.79525503731	3.03170843596	2.37201116864	2.55428090469	2.83548585611	2.50370439906	1.98222685702	1.94208000894	2.04852302935	1.41346492154	0.00639119927212	-1.03874093601	-0.712104979602	0.612671758534	1.52446066123	1.14795559842	0.0513269003809	-0.561119195983	-0.298240776303	0.180046556812	0.278478969534	0.167078321431	0.210250080652	0.257229699361	-0.0341111271681	-0.573758424936	-1.06220601166	-1.53108888664	-2.12105109019	-2.52731190932	-2.3355581739	-1.83524365021	-1.72805489435	-1.93383199456	-1.62403641685	-0.721836100433	-0.351539190514	-1.15365264212	-2.06089957035	0.238007569407	0.476552873839	-0.134262170769	-0.156306233653	1.03548122833	2.17172637356	1.88414067477	0.547659236343	-0.613444487896	-1.37864693675	-2.25807998121	-2.92186545642	-2.44744681571	-1.19555975369	-0.86702984367	-2.09724603122	-3.22398789134	-2.44334926763	-0.326764200769	0.974087102485	0.593486062411	-0.285518750575	-0.465314490415	-0.218385395058	-0.334499922905	-0.691323599671	-0.6332315283	-0.191108893123	0.0760674581015	0.295704223812	1.26228255195	2.92820431693	3.87133884897	3.04499542256	1.40906563477	0.868300363769	1.80852083502	2.69357455296	2.28033473821	1.2051579222	0.744130397792	0.858980222656	0.577250081633	-0.0915824224808	0.000374156388838	1.14982206412	1.97609531916	1.29484882777	-0.149325713986	-0.813902050065	-0.561089557456	
1	1	0.977223172721	1.31648502614	0.747553127639	0.381391603762	0.782909352563	1.0811703698	0.485377873694	-0.243356658565	0.226729728202	1.74581006594	2.69205812423	2.11417531788	0.87962732807	0.306763411377	0.425315824101	0.2850248634	-0.420675301705	-0.888554892351	-0.442972832986	0.503531665674	1.07812227674	1.03469031631	0.839397978586	0.902360949004	1.05218228782	0.796279301051	-0.00523400473497	-0.838921383815	-1.00016993163	-0.409239442102	0.177474071845	0.0671139378704	-0.416718290752	-0.385783195168	0.221007376171	0.382934719346	-0.547417162695	-1.71914934272	-1.78445840311	-0.704596871553	0.215628391626	0.0413449193996	-0.757706026226	-1.20424695617	-1.09080488226	-0.895629920831	-0.845613591038	-0.735496391634	-0.579530092304	-0.708764079615	-1.07472609469	0.406811733302	0.038267614728	-1.14070008445	-1.89262928924	-1.4441341295	-0.710345329596	-0.826057274577	-1.3349310134	-0.970810678812	0.158032215702	0.4773606077	-0.736314860586	-2.11456199319	-1.94851038568	-0.44337970515	0.670070935869	0.454780671079	-0.206776835328	-0.0995905053539	0.65391633363	1.00477784618	0.535287762563	-0.0703351092065	-0.0594447420441	0.453572202773	0.802725463546	0.665656093474	0.292978778322	-0.0171318157628	-0.272627838876	-0.527393101313	-0.610334791077	-0.343354142688	0.113886211611	0.395358485966	0.401498737285	0.366214786858	0.442202126394	0.488181651473	0.389647402672	0.298872357549	0.286636230558	0.0691436995245	-0.502448868272	-0.882332143949	-0.398026368124	0.622272958408	0.944429812807	-0.0422193006815	-1.41075476352	-1.80424181737	0.35227276347	0.71064599157	1.50288798931	1.6884793948	1.02677626892	0.442798970052	0.487842049228	0.548124268142	0.0153337544369	-0.70429852206	-0.96163081261	-0.911325557389	-1.04293835561	-1.26522316553	-1.21869174019	-1.11054220838	-1.3840804611	-1.77577414882	-1.53847513117	-0.611604275071	0.19195023986	0.349512386304	0.247241949107	0.339993262687	0.450707558862	0.398122332255	0.606879191786	1.38064988466	2.04304960602	1.69135779267	0.599355422326	-0.0809528418694	0.0496795635696	0.271877325808	0.108191754935	0.041665115242	0.436549999522	0.698626086197	0.259462955222	-0.374192255221	-0.412896542468	-0.0504603886962	-0.0205760700211	-0.252542159949	-0.0211954874489	0.648048069443	0.821303141821	0.193994442229	-0.241394736343	0.321498256029	1.1623009895	
1	1	-0.845613591038	-0.735496391634	-0.579530092304	-0.708764079615	-1.07472609469	-1.08913541421	-0.497874858772	0.0696207536716	-0.022253560401	-0.346707759104	0.0609140419382	1.21966012903	2.04699880605	1.84593841859	1.20331583224	0.96981352001	0.985633623065	0.455594864455	-0.701812011316	-1.61411865606	-1.58248210889	-0.881545153685	-0.26019209528	-0.0539830112016	-0.00428692256418	0.261137722675	0.696029081599	0.793168830445	0.151460969274	-0.897414483546	-1.45072352654	-1.04136230061	-0.230748849598	0.164927697777	0.105583462552	0.026562978842	-0.220878350391	-1.18454658891	-2.42684771681	-2.38547710544	-0.388704469525	1.95523711012	2.49939247725	1.29074621975	0.320082803257	0.655515628794	1.22500101736	0.822681662394	-0.074587103525	-0.364293304205	-0.16931147	0.622272958408	0.944429812807	-0.0422193006815	-1.41075476352	-1.80424181737	-1.116105102	-0.442783687702	-0.468246820184	-0.636669421265	-0.183701253547	0.586540419856	0.627080605886	-0.410184840136	-1.65468662091	-2.07001423711	-1.59897515766	-0.987890121041	-0.717505533849	-0.495351137224	0.163229686596	1.17005610123	1.85242635387	1.64568769312	0.729896271042	-0.0195068295113	0.209026047081	1.27927000184	2.07985821246	1.66782473903	0.429850092969	-0.300583054332	0.0732620594841	0.611962297825	0.190535363681	-0.775617908225	-0.803242577258	0.507422679028	1.73372821661	1.49033990243	0.306962425033	-0.203251453952	0.367085854461	0.806124232868	0.209220420245	-0.710216542091	-0.765935521528	-0.0496620064658	0.258371340824	-0.446838770081	-1.43926341502	-1.68255874188	0.821303141821	0.193994442229	-0.241394736343	0.321498256029	1.1623009895	1.08059895642	0.180590806191	-0.425726505529	-0.398082632857	-0.459832145132	-0.909349089931	-1.0536609546	-0.531271979307	-0.134288557956	-0.628092419157	-1.50895335361	-1.74865939674	-1.23002358867	-0.6483102697	-0.338700503081	-0.032909521361	0.361171285559	0.576063702845	0.62402157955	0.846260216137	1.15746945992	1.00970489203	0.376936121674	0.0538041537492	0.56818457429	1.35155831249	1.50176102397	0.92633323946	0.204239366022	-0.325550303561	-0.71680722607	-0.850235388605	-0.459884980996	0.199246387147	0.356696426759	-0.277245335936	-0.966614887546	-0.849469849185	-0.0869863135851	0.417346965685	0.294841016283	0.111192690306	0.391317226877	0.803671837701	0.685602886859	0.0931832917391	
1	1	1.10552913483	0.247247697992	-0.565010351239	-0.510689582763	0.166873198226	0.645164021749	0.514114952544	-0.0564542604124	-0.696170116661	-0.979494189696	-0.504195505342	0.710129085735	1.94095053045	2.24918200202	1.30349250841	-0.360919404264	-1.80517419425	-2.30515737074	-1.76303999583	-0.806489032155	-0.313956882583	-0.493966365456	-0.599495268714	0.0151290175028	0.788433469536	0.595265976364	-0.536110798254	-1.18812573467	-0.37706673119	1.03560468006	1.39121514704	0.258814431351	-1.23707317611	-1.88310361453	-1.49456891997	-0.585210518991	0.391539814276	1.16278098817	1.46054533941	1.1918725174	0.712903493569	0.557481556117	0.798180881932	0.933439157965	0.56291183452	-0.106615119194	-0.609434542067	-0.812483332722	-0.915592216861	-1.00257736818	-0.897397405833	0.398636948381	0.0127369508438	-0.1159465141	-0.0134602966357	-0.232646751343	-0.849028708825	-1.21873577791	-0.991402496013	-0.661826344507	-0.702971605648	-0.756825158101	-0.324302076583	0.182953017226	-0.103486531294	-1.12791015679	-1.7673006489	-1.226705934	0.0313895860053	0.990365865176	1.22501630227	1.00749067611	0.692790006403	0.425040206316	0.248130152158	0.13087205034	-0.0309763722584	-0.22427068754	-0.263703613826	-0.127716399874	-0.142143977553	-0.490975336874	-0.753831365684	-0.388276817655	0.383346851913	0.676256479682	0.0743711291208	-0.722075446399	-0.675977328761	0.380094739209	1.57567747967	1.92483394342	1.21324522027	0.0443179307399	-0.770961487966	-0.829583986717	-0.373452152979	0.0421355110758	0.165471240115	0.223117247216	0.421981059472	0.530793872748	-1.39328852064	-1.2099971335	-0.340212193533	0.245610274311	-0.313114673062	-1.36041021024	-1.52355273534	-0.706689284735	-0.240901539827	-0.85691145015	-1.5189762777	-0.92057652048	0.568712105828	1.34705230914	0.749870163433	-0.135939184349	-0.0225074327057	0.917046621783	1.49243303392	1.20329120597	0.7622735133	0.863019944368	1.20672626383	1.19645225369	1.01653942221	1.24835785945	1.68716856177	1.43746431727	0.352108552469	-0.475358050745	-0.178914051984	0.607974001761	0.662609749473	-0.0799139849364	-0.566147249181	-0.287566795098	0.00123404849531	-0.50395190316	-1.44083589679	-1.83179814436	-1.44082749867	-0.899745757854	-0.673773495006	-0.590480470746	-0.445985921501	-0.3869543124	-0.469361891073	-0.371640062206	0.0825907500816	0.48423088143	0.395161142245	
1	1	1.39121514704	0.258814431351	-1.23707317611	-1.88310361453	-1.49456891997	-0.585210518991	0.391539814276	1.16278098817	1.46054533941	1.1918725174	0.712903493569	0.557481556117	0.798180881932	0.933439157965	0.56291183452	-0.106615119194	-0.609434542067	-0.812483332722	-0.915592216861	-1.00257736818	-0.897397405833	-0.501757321076	-0.00359847762329	0.372184613195	0.602375614389	0.708568785735	0.619643560191	0.325698289436	-0.0208939203079	-0.320662961832	-0.623336338399	-0.827168390236	-0.575623605481	0.206719251362	0.844839115205	0.476455951338	-0.752835480577	-1.54589418996	-0.874906339751	0.704263233976	1.6202571006	1.09328842192	-0.0996956167151	-0.714750195747	-0.44965198705	-0.0186324110193	-0.0929004102489	-0.589479635501	-1.00726264585	-1.11927671527	-1.08738344689	-0.490975336874	-0.753831365684	-0.388276817655	0.383346851913	0.676256479682	0.0743711291208	-0.722075446399	-0.675977328761	0.380094739209	1.57567747967	1.92483394342	1.21324522027	0.0443179307399	-0.770961487966	-0.829583986717	-0.373452152979	0.0421355110758	0.165471240115	0.223117247216	0.421981059472	0.530793872748	0.235957749235	-0.206728722547	-0.111715700169	0.679107275458	1.3734601856	1.1485252307	0.281160742107	-0.114899358833	0.465488934138	1.25305276592	1.23976394229	0.497406783834	0.00550064703445	0.288999494429	0.722424469582	0.416606010852	-0.570188877391	-1.32046643132	-1.23354952799	-0.714165752746	-0.55934761178	-0.983061864296	-1.44646690052	-1.32502883792	-0.595442548044	0.113208609505	0.0994046097672	-0.704131525274	-1.57254745611	-1.67351200392	-0.178914051984	0.607974001761	0.662609749473	-0.0799139849364	-0.566147249181	-0.287566795098	0.00123404849531	-0.50395190316	-1.44083589679	-1.83179814436	-1.44082749867	-0.899745757854	-0.673773495006	-0.590480470746	-0.445985921501	-0.3869543124	-0.469361891073	-0.371640062206	0.0825907500816	0.48423088143	0.395161142245	0.110683895682	0.304110981934	0.977044077997	1.3667482209	0.998473407006	0.278762278764	-0.191453503448	-0.348384496874	-0.400489156278	-0.291602504512	0.0860152095142	0.417554007544	0.27302561747	-0.132267208366	-0.0377804424322	0.809105550175	1.64257697035	1.61696962877	0.904503320972	0.380903724725	0.408121543383	0.513836752254	0.251386819014	-0.185564977456	-0.388350979761	-0.311354549162	-0.109058697168	0.240505901092	0.711939347948	0.889359196266	
1	1	0.0232364535139	0.561673341659	1.05299215795	0.48851206475	-0.900430366156	-1.6970071646	-1.07411893124	0.137289817943	0.654641997967	0.448877803513	0.487437873425	1.04430677983	1.21213133041	0.340590023213	-0.825773137653	-1.0500161263	-0.236778022432	0.551620567646	0.595919871569	0.324331962872	0.433117946075	0.855921266647	1.0902674238	1.07478462814	1.13886365032	1.31365308733	1.27480861815	0.903208958173	0.422589616319	-0.00551737925762	-0.376512209494	-0.575883921485	-0.493182024619	-0.400861849	-0.713533218261	-1.27594316309	-1.40326877241	-0.837481036465	-0.193062817959	-0.133570357844	-0.463435765127	-0.524146706934	-0.294030110232	-0.459220061892	-1.30942951151	-2.14444674279	-2.13504218904	-1.3559266703	-0.488756037686	0.183264340807	0.904245294926	-1.03332480019	-0.50896256004	0.439460918364	0.96038904214	0.697170440117	0.26665844685	0.378224423054	0.911022740003	1.25174353095	1.15609274146	0.801271330305	0.262650223506	-0.482401640985	-1.09126411704	-0.965945485923	-0.0118093922427	1.10089085075	1.63786555325	1.48146427747	0.99606212133	0.536615332483	0.330462092422	0.530187847171	0.985064444034	1.14615960535	0.614136502778	-0.238880940387	-0.623984198109	-0.367947587055	-0.180205870466	-0.684319207412	-1.53794466072	-1.85231071087	-1.2901287781	-0.348631119723	0.367170596795	0.707328246466	0.770660349605	0.56282995094	0.138977334952	-0.171811805596	-0.0607893914835	0.223857548501	0.0225525971856	-0.863822980877	-1.74348277427	-1.78372153397	-1.0326073356	-0.292003907811	-0.045344086557	0.0113711251198	-1.36642778404	-0.596272790482	-0.0477532048067	-0.122890027673	-0.396475668493	-0.495152040983	-0.594127608681	-0.925356717989	-1.29024857807	-1.32529913348	-1.03402855407	-0.792989769337	-0.872696132089	-1.11370349478	-1.1106796106	-0.661467890345	0.0391494570169	0.621397617143	0.917901000655	1.04210380827	1.12737557516	1.16359961419	1.13656012742	1.15251185855	1.21565840618	1.01134351945	0.263366668063	-0.663056569226	-0.895788989413	-0.0616534826474	1.05992718362	1.29588733344	0.461196124028	-0.449140507807	-0.530699098304	0.0431421728006	0.505910228658	0.533549185392	0.409252588236	0.402436401136	0.382186811553	0.0664165981282	-0.514488955832	-0.876551220963	-0.520911565143	0.350200255613	0.748416664357	-0.0427909548973	-1.36294328262	-1.68228100551	-0.466334009036	
1	1	-0.193062817959	-0.133570357844	-0.463435765127	-0.524146706934	-0.294030110232	-0.459220061892	-1.30942951151	-2.14444674279	-2.13504218904	-1.3559266703	-0.488756037686	0.183264340807	0.904245294926	1.67437836662	1.97706127586	1.49235520935	0.652847886557	0.204201913927	0.432835676615	1.03471448126	1.58068155352	1.81508042917	1.62611238402	1.105584042	0.633367290969	0.527417142444	0.575095966452	0.279363141926	-0.347768499305	-0.664406958668	-0.325978020103	0.086089196653	-0.114438638235	-0.636244985247	-0.641082929243	-0.103866460699	0.053576003075	-0.607723035599	-1.24994642075	-0.896165112134	0.179836946223	0.897002765587	0.802247503458	0.327051609171	-0.176153617618	-0.838075094349	-1.59635243283	-1.85621144153	-1.28854655411	-0.444406420693	-0.0562146540148	0.56282995094	0.138977334952	-0.171811805596	-0.0607893914835	0.223857548501	0.0225525971856	-0.863822980877	-1.74348277427	-1.78372153397	-1.0326073356	-0.292003907811	-0.045344086557	0.0113711251198	0.254561470226	0.450054015076	0.167708419403	-0.392699972388	-0.514775633601	0.0787383304796	0.799823582694	0.968363434062	0.669563544851	0.487690556804	0.601770113659	0.624218370171	0.334781545481	0.0911699544849	0.250992872436	0.542656101782	0.437353604145	-0.0512787109905	-0.436176187356	-0.500992752664	-0.488885755664	-0.567123662155	-0.551508091394	-0.33326385537	-0.130856080212	-0.0868821443983	-0.0132263878022	0.138947853884	0.00999241031024	-0.565462370069	-1.04936973324	-0.789687511494	0.032448093403	0.595262644435	0.559808473286	0.434995463743	0.686795212584	1.05241660527	0.409252588236	0.402436401136	0.382186811553	0.0664165981282	-0.514488955832	-0.876551220963	-0.520911565143	0.350200255613	0.748416664357	-0.0427909548973	-1.36294328262	-1.68228100551	-0.466334009036	0.987655376768	1.08126260383	-0.119113691879	-1.15405048412	-1.18224116989	-0.83073607638	-0.889292435427	-1.11719707998	-0.872097171643	-0.286779699974	-0.0407392692613	-0.221295827847	-0.224880366808	0.167917692712	0.402039147537	0.0816756707641	-0.349681945412	-0.259321551904	0.268435589847	0.606966628555	0.462987056113	0.14718931699	0.0204981546862	0.11475519729	0.299698937238	0.479741808749	0.569301633134	0.495717573519	0.271331364658	-0.0484898266213	-0.41570942113	-0.680160482444	-0.531496079693	0.144904882447	0.871255810379	0.949441397683	0.359822865655	-0.0805448505901	
1	1	-0.549814740186	-0.547062704356	-0.14892723254	0.209587242676	0.391135600792	0.577941166424	0.731416733103	0.59224302994	0.306364189293	0.460496362012	1.2457148168	2.08368150131	2.4124437902	2.3336664439	2.09166030727	1.47779777369	0.353297760956	-0.665160697797	-0.817417388732	-0.327118665316	-0.168288352987	-0.624770257546	-0.885502941822	-0.328212342914	0.515370024891	0.729428926413	0.262483111726	-0.180389609981	-0.255897491772	-0.345661790086	-0.78909952465	-1.28659465272	-1.29714361427	-0.746583309239	-0.113700922298	0.0697334104378	-0.316949948514	-0.941400764186	-1.31347702136	-1.13409427765	-0.445020853479	0.451379421886	1.14616111603	1.28899065787	0.792868019296	-0.0248634585652	-0.594685417695	-0.553205664777	-0.0860511241713	0.233862508528	-0.00473495372486	0.298174448136	0.518068739367	0.118785758981	-0.232423465397	-0.0284409236403	0.288547606995	-0.0462713257419	-0.874604172321	-1.09705128231	-0.167976530183	0.9378292218	0.803244364807	-0.581139203944	-1.73117121883	-1.53203947277	-0.483569491146	0.23235884077	0.276029055081	0.166475799374	0.256565712284	0.427794594883	0.687984599209	1.2487574765	1.87272267166	1.86341045733	1.01948669522	0.0662795603308	-0.22535024027	0.0331576501653	0.228850411668	0.197447474951	0.259828596878	0.47486835843	0.445450653403	-0.0350850586845	-0.583785884956	-0.732341070978	-0.581209215736	-0.631728154916	-1.03152869658	-1.30787385995	-0.953434512764	-0.160675014824	0.261157529962	-0.218003712924	-1.14879925821	-1.47090219599	-0.671022592921	0.556751449818	1.03503358843	0.487856524593	0.329532126998	0.540828019993	0.708912177648	0.425799144693	-0.46679191649	-1.40527957036	-1.54162701765	-0.780949801585	-0.108291745856	-0.479185599931	-1.51144035506	-1.82384378767	-0.78342833661	0.627099978626	1.01053329326	0.230064596512	-0.610390595639	-0.64971125473	-0.171426533884	0.0446151189143	-0.182662349133	-0.341230163395	-0.00580411365968	0.639508653574	1.06560552552	0.986644132918	0.600162511005	0.261400219923	0.0409750418622	-0.228928205367	-0.512050883831	-0.523764356355	-0.286192999348	-0.333636058996	-0.910264504683	-1.3145279148	-0.689726088293	0.621505867079	1.25467346494	0.594704200471	-0.344322391025	-0.330692774471	0.458569275603	0.924903483311	0.722672904233	0.532522484752	0.735979814521	0.817376754722	0.356830296899	-0.155574393222	-0.0313127059354	
1	1	-0.658095210273	-1.04212956822	-0.9019241555	-0.526772809568	-0.268648293746	-0.0339397629048	0.387571383583	0.68283889418	0.321506277789	-0.467062095645	-0.674773509126	0.194620563765	1.29179986592	1.37200413858	0.315663528813	-0.862789629978	-1.36601443393	-1.36855971247	-1.35112630727	-1.29203202947	-0.872108061938	-0.180034763002	0.25162225841	0.115955410116	-0.269923596037	-0.356707551661	-0.0251750887292	0.312101559923	0.289025529081	0.0736961564187	0.134542494545	0.574448235147	0.916224698462	0.682056532323	0.0722193692229	-0.178454977473	0.328871723985	1.14665799415	1.51088864935	1.22016293847	0.758191690236	0.624761170795	0.749170552155	0.663672494867	0.157765774179	-0.386362321067	-0.372221140496	0.293692677926	0.907008901511	0.665525107697	-0.296293883461	-0.167149327811	-0.705574502459	-0.73968326571	-0.543339411085	-0.317895742967	-0.033464607181	0.294535214284	0.467994466284	0.376930657243	0.166990607482	-0.0329993635329	-0.331544119781	-0.791509604977	-1.10945768796	-0.867638639014	-0.126210436824	0.536024336727	0.686040926513	0.497227037695	0.358705590421	0.271266362133	-0.0293684273223	-0.464604600413	-0.573851922443	-0.160981830583	0.396542929441	0.659263860721	0.626832713602	0.511300164827	0.284822029891	-0.163145558896	-0.545722540915	-0.362407168662	0.308054788763	0.641495246481	0.0726961697153	-0.842870222107	-1.07552585648	-0.493246960311	-0.0139256345913	-0.28529336914	-0.797585716021	-0.754003753099	-0.317568697138	-0.280321209931	-0.712897607356	-0.76006337089	-0.00571144061338	0.696607152208	0.392842037487	-0.503790622055	0.487626998652	0.955343085903	0.713212944604	0.0518825957102	-0.220709254601	0.231520922716	0.8295831022	0.755203230436	-0.0039380976489	-0.544944000508	-0.140907660646	0.756778641388	0.947085686924	-0.0216001552138	-1.14949111724	-1.11763906062	0.025168871569	0.85233995031	0.379396449615	-0.648799962434	-0.79325227031	0.125846802889	0.830347799107	0.417694309524	-0.378466144433	-0.313112013921	0.520687977415	0.839288693549	0.0801634515632	-0.726708463151	-0.415214992524	0.655581131365	1.10978910153	0.437166054807	-0.408786298543	-0.392958531069	0.302839677222	0.739512689395	0.502123274026	0.0337148833761	-0.13714216714	-0.0157024678321	0.0791187252848	-0.0542855680924	-0.412114455512	-0.804183250228	-0.888388977422	-0.48033374225	0.07458315509	0.134467002138	-0.399095911021	
1	1	0.907008901511	0.665525107697	-0.296293883461	-0.911088957835	-0.456233178562	0.432360954181	0.516441271529	-0.349220763164	-0.894595052365	-0.164269164495	0.986391131738	0.881072560861	-0.703853483906	-2.11886262687	-1.91943875246	-0.621528212008	0.171450493444	-0.145843634679	-0.786446879654	-1.02246445885	-1.11439097305	-1.57288418576	-2.11903148067	-1.93807818386	-0.808742521231	0.421278706236	0.703285532814	0.0136561455509	-0.600581015345	-0.260397473032	0.783729051302	1.67760139148	2.0689850792	2.1604833684	2.01948643159	1.52623458828	0.949931499463	0.856747650003	1.21225409847	1.24109471563	0.533125703837	-0.335357131543	-0.727302387766	-0.906120079377	-1.36198132049	-1.66881500093	-1.10597897101	-0.295194326947	-0.848120788543	-2.9051392823	-4.23143673506	0.696607152208	0.392842037487	-0.503790622055	-0.748192787278	-0.046515127693	0.60197575424	0.480805350121	0.172239264743	0.483846322089	1.0752708467	0.970842941868	0.0678350049404	-0.770952516134	-1.00858701432	-0.932757377085	-0.768231219809	-0.211327270094	0.710104274292	1.14124162205	0.543737188614	-0.261022634855	-0.1197480159	0.748479559256	1.10029692691	0.627564501411	0.371622924245	0.929466448728	1.4155702415	0.888907427477	-0.131121740097	-0.566336057307	-0.511041454556	-0.856996245987	-1.59004668682	-1.70854577917	-0.877284833826	0.0126071934394	0.301759857171	0.524565470552	1.29917054446	2.12280626919	2.11051539355	1.35598590161	0.571803668497	-0.19610650499	-1.33291895255	-2.31098414784	-1.99215067852	-0.56526565386	0.162593144859	-0.772140996367	0.07458315509	0.134467002138	-0.399095911021	-0.75104560612	-0.201359181993	0.844989042914	1.22581121587	0.514807284831	-0.396838974113	-0.462390762016	0.198369080662	0.556211443898	0.0753412901121	-0.649287127469	-0.720463911266	-0.0611969512345	0.581819820788	0.593468831763	0.115052441644	-0.351640771733	-0.630729357134	-0.898498412149	-1.22420758369	-1.44628406434	-1.4539228019	-1.25857021313	-0.84652318494	-0.304471428227	-0.0368345706392	-0.440474777704	-1.25842584884	-1.72200302328	-1.50579654478	-1.08948703499	-0.931009900915	-0.733579571541	-0.000473301713324	1.04130069852	1.74782066603	2.12826920566	2.8190118121	3.88861841759	4.41054389124	3.71090603949	2.46003559082	1.84067943899	1.98511774398	2.00599889656	1.40830799884	0.629412586765	0.0581811059958	
1	1	-0.848120788543	-2.9051392823	-4.23143673506	-2.78859888519	0.486301085563	2.63135218688	2.14397780602	0.431924898695	-0.266692175613	0.595449430471	1.88371903042	2.48864247546	2.25120013498	1.5797127211	0.887861594876	0.488846811101	0.583466839588	1.0811503471	1.62120636534	1.88828202663	1.79655495769	1.43216607943	1.01580543025	0.818978709175	0.78235639884	0.368839570748	-0.764326492791	-2.04213270715	-2.40255835739	-1.58835739521	-0.529149817299	-0.204053419019	-0.5696101987	-0.941737662813	-1.0005773397	-0.997537009227	-1.15341881209	-1.27670488648	-1.0959102505	-0.696898206365	-0.501858304478	-0.742138386847	-1.04966906907	-0.816650380547	-0.0275689802227	0.527321068934	0.150952793965	-0.786038301037	-1.15070991184	-0.391426047165	0.715114169228	-0.56526565386	0.162593144859	-0.772140996367	-1.85181408698	-1.08670843402	1.06019802626	2.23570936729	1.50558695009	0.536075685091	0.973983633322	2.04076469776	1.78209196561	-0.109959671749	-1.93191469159	-2.2390497286	-1.33164097681	-0.319117481565	0.29020112777	0.672653005475	1.01405400307	1.23960155062	1.17274264322	0.69615277055	-0.0620500964776	-0.651812922982	-0.647508678866	-0.17048538148	0.1686683386	0.0324566157327	-0.25059313839	-0.300200381452	-0.318929542141	-0.691511129029	-1.23687158609	-1.40010754525	-1.15194583467	-1.0873381377	-1.44791738751	-1.65531793415	-1.14791319876	-0.285144738884	0.118002838309	-0.0878830118903	-0.299395713768	-0.123920152236	0.151007859631	0.194167938922	0.194214830816	0.463660111819	0.894909361898	1.10536227886	1.40830799884	0.629412586765	0.0581811059958	-0.647009958562	-1.78959316394	-2.7985957456	-2.85534956691	-2.11348098037	-1.57548500665	-1.69643797157	-1.78858759432	-1.10759364176	-0.0403750205123	0.302682521832	-0.480937009823	-1.56617651389	-1.88123148632	-1.2531702642	-0.415602678804	-0.0466856723719	-0.0225694106499	0.301046007036	1.1898583045	2.08484671216	2.23673300678	1.64715919763	1.05480204341	0.969062740566	1.05475181166	0.716959471333	-0.00224630639874	-0.488587628364	-0.482113298413	-0.481244262249	-0.987048972258	-1.6595114827	-1.66400833216	-0.856120766205	-0.0984493176282	-0.138557360862	-0.619721858724	-0.718330229814	-0.401464443673	-0.348370214478	-0.738748002091	-0.891357816014	-0.336719997765	0.415110161361	0.616775227067	0.313922549303	0.133336936173	
1	1	-1.15070991184	-0.391426047165	0.715114169228	1.0219439532	0.459933583048	-0.0537828836295	-0.0696032281844	-0.212970221258	-1.00372027796	-1.73461194014	-1.30765645608	0.119899515905	1.17201786284	0.945984495124	-0.0322030527362	-0.718968980533	-0.808337513485	-0.669479698665	-0.552489101309	-0.441577184993	-0.455835591346	-0.767596282533	-1.1290087416	-1.01262085253	-0.312300419876	0.495740477265	1.01375873352	1.33468196276	1.60004030442	1.60260290067	1.25419912401	0.974736657119	1.11841579476	1.37392283206	1.28385239406	1.05285845099	1.16922550232	1.43311441003	1.17554123622	0.458551081287	0.172148926185	0.635226760594	0.919053073845	0.189344378436	-0.968301449941	-1.33221165134	-0.751779185564	-0.178507907699	-0.131744587261	-0.130717036489	0.123918467914	0.463660111819	0.894909361898	1.10536227886	0.972159050362	0.72322359027	0.530189108872	0.343290077142	0.170152516177	0.238304423665	0.676385863433	1.12740923314	1.00743533334	0.260084096029	-0.423093409537	-0.367644863903	0.249872877816	0.612577898127	0.318716651142	-0.0939413927702	0.137560230769	0.959463713463	1.52228789402	1.24092944106	0.480772929588	-0.00590518097216	-0.043893388489	-0.11273387235	-0.555267847313	-1.10362584387	-1.31347286044	-1.11713293669	-0.802713577743	-0.598238141381	-0.46261345428	-0.305260387666	-0.189349369542	-0.225387817933	-0.355514590561	-0.345354615636	-0.0535185734919	0.366058981091	0.562509499185	0.302030040712	-0.237896937036	-0.574669305336	-0.410936793902	0.0469634361955	0.332830335797	0.262688047557	0.114016624844	0.19622847465	0.616775227067	0.313922549303	0.133336936173	0.27003794877	0.309746423094	0.0563280015185	-0.0661087097054	0.336194775401	0.957661748652	1.11520541999	0.643878347918	0.12510199999	0.131970761382	0.537041665969	0.786399094821	0.655460814172	0.433453399424	0.37564401827	0.303867262764	-0.0730871991854	-0.609353466478	-0.793743343387	-0.399853434387	0.16260009251	0.278017329399	-0.186794611245	-0.795428643605	-1.0802258482	-0.972550223257	-0.709230376086	-0.528812663959	-0.472205385448	-0.372516029837	-0.0737742435512	0.308233659215	0.426343093808	0.174206052033	-0.0187065005937	0.299838428425	0.887571580303	1.03648236598	0.613623383661	0.328484697015	0.623241505311	0.910568976321	0.498606811714	-0.195703188545	-0.224544685146	0.341816663489	0.470687558364	-0.130306650655	
1	1	1.17554123622	0.458551081287	0.172148926185	0.635226760594	0.919053073845	0.189344378436	-0.968301449941	-1.33221165134	-0.751779185564	-0.178507907699	-0.131744587261	-0.130717036489	0.123918467914	0.0176975682618	-0.950389329692	-2.10150881166	-2.33071656655	-1.59189393769	-0.87918113479	-0.831817393979	-1.07188611492	-0.968968632149	-0.425107038483	0.294767522442	1.01073547513	1.57479857108	1.69716060284	1.19816024527	0.364848249913	-0.232241982579	-0.294154549596	0.031572868063	0.428311726964	0.640833673655	0.547063955329	0.240022066309	0.0593978252711	0.28425129944	0.72084272938	0.875701639161	0.609743767293	0.310354502669	0.269391100695	0.224157237269	-0.145405872653	-0.553699488098	-0.44007212166	0.128698668177	0.459281463687	0.250817552016	0.00298903537951	-0.345354615636	-0.0535185734919	0.366058981091	0.562509499185	0.302030040712	-0.237896937036	-0.574669305336	-0.410936793902	0.0469634361955	0.332830335797	0.262688047557	0.114016624844	0.19622847465	0.420669551442	0.443430607628	0.172104489106	-0.0469967454526	0.203795715516	0.916115108691	1.57598085044	1.58465290536	0.825958797877	-0.138152327999	-0.547260293989	-0.225067568098	0.20934776135	0.0466765941269	-0.673338357509	-1.16936556093	-0.856434789055	-0.115571111359	0.148420736698	-0.343448367036	-0.871924933639	-0.648105580258	0.151730846039	0.648895139691	0.437159663303	0.0362508826942	0.0757416411541	0.424389501207	0.455327472301	-0.0541863373926	-0.707091678699	-1.06429113456	-1.06427837195	-0.879246167014	-0.716173259106	-0.785206995576	-1.09519133844	-1.22403435535	0.299838428425	0.887571580303	1.03648236598	0.613623383661	0.328484697015	0.623241505311	0.910568976321	0.498606811714	-0.195703188545	-0.224544685146	0.341816663489	0.470687558364	-0.130306650655	-0.45424854883	0.162352283642	0.846336412049	0.504391547511	-0.426116658474	-0.663346723554	-0.0921494490455	0.167130896541	-0.366287611305	-0.816795416153	-0.420195237979	0.315385134039	0.489481749223	0.100227282862	-0.206679602662	-0.200065127553	-0.146797936954	-0.120724916023	0.0808347932856	0.411641828879	0.475259898134	0.0402501432785	-0.625250657825	-1.0182592237	-0.853148394338	-0.248537939664	0.322620977105	0.330788427497	-0.306471448932	-1.00676674911	-1.05866044717	-0.446102764984	0.106248677498	-0.0269472568312	-0.722974328971	-1.35135814183	-1.43644841391	-0.933484434557	
1	1	-0.485586356173	-1.316903911	-0.860007081874	0.384054475724	0.83383827659	0.0449962627901	-0.703356207265	-0.310867134908	0.594487823257	0.707257678556	-0.00840407540515	-0.453971637233	-0.252940661949	-0.334529685998	-1.32872961202	-2.34621032539	-2.1551961535	-1.01577206739	-0.380207691484	-0.917517230939	-1.735380594	-1.73736516554	-0.964331694062	-0.161372989795	0.391178692618	0.929407597461	1.43477891357	1.54803979276	1.25112947295	1.02453972544	1.16958071977	1.36080242957	1.12929074972	0.588711491468	0.323466061437	0.591047413364	0.978250591427	0.950167575786	0.493410360121	0.0280456334866	-0.193641720482	-0.327910185227	-0.576885965253	-0.805530834569	-0.664264308017	-0.0623407898771	0.544536319967	0.494620295203	-0.297229632804	-1.0349602621	-0.82682523695	1.01648226576	0.652056871379	0.0892481594583	0.0136664139418	0.196964726067	0.103841934961	-0.150695435985	-0.0421535298352	0.426327595769	0.656812262536	0.334878155285	-0.167435080576	-0.370507826721	-0.240299485488	0.0150238347976	0.336864712954	0.709400592856	0.933482011567	0.876995455436	0.76239529395	0.8546965686	0.997020625525	0.82918301666	0.410987387058	0.22765682034	0.476656149751	0.754651359448	0.615296383026	0.159489818862	-0.17891158636	-0.198204899021	-0.0629387723115	-0.0293355892195	-0.197512741531	-0.491308169899	-0.75301723959	-0.867323901868	-0.890396506828	-0.980207041977	-1.09092300744	-0.908137436667	-0.334368912967	0.140310460935	-0.0977443685477	-0.950488879841	-1.54233680243	-1.20570575429	-0.311432256547	0.20251889249	0.0859151555623	0.120609479166	0.567454444768	0.0490205292532	0.0774677205792	0.75998476966	1.39933236583	1.36401824442	0.78215839525	0.228983284514	0.0274752191094	0.0787816972544	0.214213402257	0.43316213257	0.785103456599	1.1895208326	1.44993884773	1.39567340428	1.02168469988	0.551782347995	0.273763813634	0.2260341478	0.103517501738	-0.436318357953	-1.39959731318	-2.42653358693	-3.07672437071	-3.06459766615	-2.39991794776	-1.45738212441	-0.763640269213	-0.5017265656	-0.341622121604	0.095556263423	0.703358788158	0.994014829546	0.722932995201	0.181712775571	-0.184562311117	-0.256685878235	-0.173779512811	0.0757925459207	0.672527737527	1.49484310964	1.91620512972	1.42875575792	0.409662826553	-0.123531722385	0.287893486992	0.924343570455	0.81325803869	0.0475945302411	-0.32021793821	
1	1	-0.789671757037	0.211591493111	0.369653763095	-0.118104986051	-0.247886900346	0.102969515487	-0.0263747297944	-0.958199028527	-1.51557317826	-0.624324151191	0.976543504354	1.59898690711	0.836693244225	-0.123666942053	-0.36548527418	-0.294530702499	-0.553128415523	-0.895888409572	-0.824196175267	-0.640071382559	-0.933925898303	-1.38033521658	-1.04240938798	0.123683577269	1.0404855788	1.01943058508	0.662415525985	0.828649225094	1.42528369755	1.79023521728	1.71478319691	1.41850610435	0.890794062604	0.0106771208078	-0.847506905364	-1.08046948904	-0.786186325868	-0.734703522828	-1.21924295448	-1.55334678302	-1.06676199327	-0.102111521833	0.449820944793	0.330586580482	0.0873560860387	0.1289590765	0.202313576448	0.00733522796318	-0.160343567321	0.194434091385	0.982808251265	-0.324617163284	0.364333321971	0.880879677754	0.835584541619	0.435733600696	-0.0269448134429	-0.462352422315	-0.632911914332	-0.232624179952	0.36108606829	0.137036112925	-1.16734840922	-2.28956338806	-1.90753981441	-0.54194350975	0.0406872183145	-0.704843397681	-1.35081596922	-0.633862371395	0.676660875588	0.964254166939	0.143708776951	-0.375652797905	0.102312718262	0.723898254142	0.706142065319	0.585634671573	1.16005749954	2.02972143563	2.11848276382	1.18699453315	0.0208195669006	-0.647629241046	-0.699897858998	-0.307990065613	0.210271622839	0.248421785493	-0.54804684714	-1.49424034954	-1.4109506774	-0.220376097347	0.732423462258	0.392159828116	-0.569344507904	-0.739373789335	0.0258453763783	0.505461033505	-0.0317486864582	-0.827137207163	-0.802304858899	0.00649851107442	-0.0718267124802	0.788548659244	1.66683949264	1.49725663059	0.467213907555	-0.236881739988	0.00866494503992	0.498993361982	0.214603878802	-0.813240940257	-1.58638903369	-1.43273883804	-0.73138058474	-0.251837514214	-0.203276183004	-0.203352359013	0.0474781996521	0.445920879018	0.800279761178	1.05221563008	1.08911725651	0.720045364073	0.0895825889746	-0.223816978195	0.0438384304954	0.262925490184	-0.365899246844	-1.57981358727	-2.18101568185	-1.54162018704	-0.385536508487	0.2091561869	0.10421240109	-0.0373013389749	0.200688300579	0.606065045418	0.854313082789	0.852195505958	0.600694015532	0.157531935181	-0.253525029354	-0.397578264467	-0.286241170494	-0.12066702047	-0.0202065649166	-0.00440089667587	-0.184078898844	-0.663811484523	-1.21495776142	-1.38068262002	-1.06253387905	
1	1	-0.824196175267	-0.640071382559	-0.933925898303	-1.38033521658	-1.04240938798	0.123683577269	1.0404855788	1.01943058508	0.662415525985	0.828649225094	1.42528369755	1.79023521728	1.71478319691	1.41850610435	0.890794062604	0.0106771208078	-0.847506905364	-1.08046948904	-0.786186325868	-0.734703522828	-1.21924295448	-1.55334678302	-1.06676199327	-0.102111521833	0.449820944793	0.330586580482	0.0873560860387	0.1289590765	0.202313576448	0.00733522796318	-0.160343567321	0.194434091385	0.982808251265	1.58007965756	1.59630541448	1.24204082084	0.864862870563	0.487270093331	0.00543052701889	-0.408347027876	-0.402147123114	0.0117314891453	0.287044026331	-0.0157832977448	-0.571273069077	-0.672666156241	-0.25210720668	-0.0556559551735	-0.602608901947	-1.41502946543	-1.71892767374	-0.633862371395	0.676660875588	0.964254166939	0.143708776951	-0.375652797905	0.102312718262	0.723898254142	0.706142065319	0.585634671573	1.16005749954	2.02972143563	2.11848276382	1.18699453315	0.0208195669006	-0.647629241046	-0.699897858998	-0.307990065613	0.210271622839	0.248421785493	-0.54804684714	-1.49424034954	-1.4109506774	-0.220376097347	0.732423462258	0.392159828116	-0.569344507904	-0.739373789335	0.0258453763783	0.505461033505	-0.0317486864582	-0.827137207163	-0.802304858899	0.00649851107442	0.707835341364	0.801229875062	0.543613039936	0.281342183958	0.0642291861501	-0.0989061038994	-0.145139724059	-0.167511538485	-0.32898293093	-0.49306292485	-0.353694290096	-0.0704222588788	-0.253905315295	-1.00495922945	-1.46307009565	-0.853775020862	0.292361775029	0.651251206406	0.800279761178	1.05221563008	1.08911725651	0.720045364073	0.0895825889746	-0.223816978195	0.0438384304954	0.262925490184	-0.365899246844	-1.57981358727	-2.18101568185	-1.54162018704	-0.385536508487	0.2091561869	0.10421240109	-0.0373013389749	0.200688300579	0.606065045418	0.854313082789	0.852195505958	0.600694015532	0.157531935181	-0.253525029354	-0.397578264467	-0.286241170494	-0.12066702047	-0.0202065649166	-0.00440089667587	-0.184078898844	-0.663811484523	-1.21495776142	-1.38068262002	-1.06253387905	-0.686941539108	-0.554288304084	-0.33060228671	0.417829066679	1.35061111818	1.5880527191	0.894875209313	0.0906457035419	0.0291236957712	0.55888500823	0.855535466593	0.555974844394	0.0907933622305	-0.0411826856589	0.130564058805	0.307315517604	0.384721227801	0.417131254409	
1	1	-0.562351478291	-0.771235654502	-0.288953461582	0.341500162089	0.488096829246	0.133847503443	-0.270591214816	-0.463794480588	-0.571622598613	-0.710446300296	-0.680042368903	-0.209818061854	0.602186949699	1.24251427459	1.23343153782	0.621006285256	-0.0498097048172	-0.317534966302	-0.29411786811	-0.459849373922	-0.925848639216	-1.14744804064	-0.596649605672	0.416174608755	0.997578079383	0.766885707084	0.292240516885	0.27376021835	0.665300753522	0.921972158109	0.836468494167	0.680276373005	0.625871504538	0.512632841025	0.199861389106	-0.233890726256	-0.689683400576	-1.1415955493	-1.45661159499	-1.38298791164	-0.866888326827	-0.199558436658	0.273602299281	0.446095499085	0.362263473755	0.0579620432498	-0.31667002293	-0.442802113195	-0.1867706688	0.121275184853	0.058764787562	-1.60137368281	-1.72034860662	-1.06809091984	-0.726790867627	-0.935823576716	-0.909527982377	-0.170356409231	0.737963008597	1.11680970256	1.01461634525	0.850443177175	0.63370022643	0.141002649831	-0.396892205907	-0.463031695309	-0.0832446246576	0.147080710737	-0.0429682997453	-0.239026968677	-0.109804858403	0.0127939481713	-0.240650019658	-0.489328736444	-0.0919268012018	0.75738558262	1.10847111108	0.542210908448	-0.210919800176	-0.243451517779	0.373743861371	0.812201531887	0.549799444873	-0.241149590574	-1.16076004201	-1.94329421156	-2.34021098951	-2.11124894624	-1.38470180347	-0.715030693523	-0.469444799933	-0.385632414869	-0.0480790860362	0.363903233108	0.283430658098	-0.289119578829	-0.58339141373	-0.0466929053718	0.85758596117	1.21281948534	0.797014881998	0.244565033217	-1.78687588334	-2.26307554475	-1.85044237313	-0.913671491838	0.0273636095825	0.588298649446	0.537856447134	-0.101715642756	-0.881410205483	-1.13431028063	-0.607243072644	0.221658712862	0.650074113239	0.470996975252	0.0458688931975	-0.185546208923	-0.0708744888459	0.23609366232	0.363138939543	-0.0166260384427	-0.755101504303	-1.18232674195	-0.787663183485	0.144079322488	0.833462826151	0.84733593026	0.374107403853	-0.231978610398	-0.765384875929	-1.03116252571	-0.857089891146	-0.377516860756	0.0415044068023	0.268831090857	0.483101964924	0.672055426201	0.457376187902	-0.248039501361	-0.768691566242	-0.399817725662	0.572709466892	1.12466937642	0.788950620749	0.161656726664	-0.0130361252429	0.27425915556	0.571686651302	0.636168747035	0.484298182115	0.124541369287	-0.335402903415	
1	1	-0.925848639216	-1.14744804064	-0.596649605672	0.416174608755	0.997578079383	0.766885707084	0.292240516885	0.27376021835	0.665300753522	0.921972158109	0.836468494167	0.680276373005	0.625871504538	0.512632841025	0.199861389106	-0.233890726256	-0.689683400576	-1.1415955493	-1.45661159499	-1.38298791164	-0.866888326827	-0.199558436658	0.273602299281	0.446095499085	0.362263473755	0.0579620432498	-0.31667002293	-0.442802113195	-0.1867706688	0.121275184853	0.058764787562	-0.29677006748	-0.441091550828	-0.154390468059	0.230701762001	0.384029007801	0.420176592237	0.521155947765	0.449841954844	-0.132033265159	-0.945797436348	-1.15405479183	-0.314574760403	1.01401392764	1.85586487779	1.79482287484	1.16451218573	0.490579670326	0.0735651629983	0.0189735486144	0.307697028622	0.0127939481713	-0.240650019658	-0.489328736444	-0.0919268012018	0.75738558262	1.10847111108	0.542210908448	-0.210919800176	-0.243451517779	0.373743861371	0.812201531887	0.549799444873	-0.241149590574	-1.16076004201	-1.94329421156	-2.34021098951	-2.11124894624	-1.38470180347	-0.715030693523	-0.469444799933	-0.385632414869	-0.0480790860362	0.363903233108	0.283430658098	-0.289119578829	-0.58339141373	-0.0466929053718	0.85758596117	1.21281948534	0.797014881998	0.244565033217	0.126633971668	0.294780810377	0.241312976551	-0.151035096458	-0.448722702126	-0.203124348017	0.50162482182	1.10887680844	1.18591779896	0.852669469402	0.52152407052	0.318158098947	0.0122648042778	-0.397577420007	-0.411357837983	0.288988707407	1.12038619753	1.1434634215	0.312112332786	-0.411857379999	-0.755101504303	-1.18232674195	-0.787663183485	0.144079322488	0.833462826151	0.84733593026	0.374107403853	-0.231978610398	-0.765384875929	-1.03116252571	-0.857089891146	-0.377516860756	0.0415044068023	0.268831090857	0.483101964924	0.672055426201	0.457376187902	-0.248039501361	-0.768691566242	-0.399817725662	0.572709466892	1.12466937642	0.788950620749	0.161656726664	-0.0130361252429	0.27425915556	0.571686651302	0.636168747035	0.484298182115	0.124541369287	-0.335402903415	-0.548120409052	-0.322884935862	-0.0188579941491	-0.116359010951	-0.445642265704	-0.335477087664	0.336628374985	0.763804529546	0.252499453066	-0.688281271191	-0.856879314769	0.0793827365797	1.09143150914	1.07188811045	0.2389210007	-0.178662958705	0.460418836881	1.42929088799	1.64974745387	1.02925840069	
1	1	0.0735651629983	0.0189735486144	0.307697028622	0.764438011723	1.06833348164	0.946949924608	0.421848050223	-0.151095618217	-0.33701693337	0.00936637604654	0.579846435998	0.844581088167	0.491420130657	-0.314165138346	-1.08866627547	-1.45113574739	-1.41915342939	-1.33525728925	-1.51060619488	-1.8920900656	-2.10031192125	-1.83024805653	-1.21400489479	-0.680818232897	-0.413364364074	-0.133339123024	0.411616271698	0.919025818522	0.814876599211	0.0687320517556	-0.590207911706	-0.472017883642	0.251061230013	0.776694925315	0.650812595964	0.233747011916	0.151830235923	0.525670067239	0.918875011938	0.943681325012	0.707851035688	0.568044863357	0.54754291169	0.254187150045	-0.511091434012	-1.2528780396	-1.19020201063	-0.218426749477	0.806537273876	0.970688786632	0.307829931355	1.1434634215	0.312112332786	-0.411857379999	-0.33874691586	0.0618031185975	-0.0517152475024	-0.64232756536	-0.933657212775	-0.599117228533	-0.171659819643	-0.194154601944	-0.49381263713	-0.577252597914	-0.318766794048	0.0659793155102	0.394563936442	0.523551902474	0.26607771731	-0.311018797324	-0.67534320178	-0.390944092077	0.19649363508	0.310862805044	-0.157093713663	-0.407768297447	0.141581134934	0.936472921576	0.950071251226	0.0612891274985	-0.77363457479	-0.730243894807	-0.053500010533	0.415185347796	0.323633835103	0.107591589258	0.323001503255	0.95746562774	1.44293107796	1.25319255305	0.430903684481	-0.404255545965	-0.587468933594	-0.0724107069456	0.47032832757	0.343821472145	-0.413212489075	-1.06654009438	-1.01329603718	-0.449843102621	-0.0822938453381	-0.263284062152	1.42929088799	1.64974745387	1.02925840069	0.35521387489	0.14670295662	0.149475304232	-0.0446352413856	-0.373696305118	-0.520202898832	-0.399936737947	-0.143959958664	0.127967959144	0.175837341968	-0.396034169482	-1.50547003858	-2.17901756863	-1.52373344738	-0.165313521027	0.193620213652	-0.939029436952	-1.89602089811	-1.02253480383	0.922245201596	1.72528005989	0.772481792717	-0.243213945571	0.0913267783889	0.915619360802	0.544875333684	-0.90846782881	-1.64377461376	-0.687144828952	0.901493262691	1.57296607213	1.12783681464	0.518057617822	0.414715477031	0.636188235549	0.742688228945	0.591144538695	0.24225526034	-0.270416961626	-0.841500143333	-1.1487169165	-0.884729310162	-0.190023111569	0.274381093774	-0.0972782781729	-1.12105520275	-1.85887808286	-1.60163620829	
1	1	-0.431370022399	0.184688125603	0.274811925066	-0.379237053232	-0.992157804277	-0.720915915966	0.202849652167	0.796137231012	0.676322985267	0.446593282434	0.608791536962	0.762718072023	0.323155598702	-0.453271462442	-0.793600641814	-0.56070525633	-0.43766641813	-0.879974765616	-1.46203747649	-1.51560451919	-0.998723067722	-0.398552073953	0.0343605740495	0.534435376976	1.2709112665	1.92586664153	2.04390655616	1.6170860831	1.05534583353	0.668621233838	0.46798179955	0.4126010386	0.476618004631	0.417563108828	-0.0968258320929	-0.89652063419	-1.22175669864	-0.665226330552	0.0303344150931	-0.274887834299	-1.55531690335	-2.43893890113	-1.89099489	-0.48635399322	0.508396526163	0.789327927094	0.971168022361	1.19653640239	0.890999156812	0.0520665856011	-0.326163929814	0.58967283723	0.667915301111	-0.482830330542	-1.5044190612	-1.14439314376	0.047120795459	0.665987462099	0.506054836991	0.579915078187	1.2212213507	1.36224761233	0.165371996052	-1.5267635595	-2.14006686396	-1.33306669331	-0.215289799286	0.207258194135	0.0365976447955	-0.139068351614	-0.125869505713	-0.0662303227755	0.0168065763749	0.202886916168	0.418492243825	0.536235907986	0.603886445411	0.74121613483	0.943094769822	1.1458400956	1.30570925904	1.24010395222	0.64759386389	-0.418180618812	-1.27264926475	-1.2194021478	-0.395762565151	0.380569078566	0.554199679128	0.249645500709	-0.169719192641	-0.465529887999	-0.397387819999	0.150804203909	0.734021171711	0.61196016725	-0.22021616134	-0.802152431497	-0.452472892091	0.256348346202	0.374064626107	-0.0149309109973	0.286821392588	-0.210210681986	-1.30919650728	-2.54561301781	-2.99800478365	-2.29493526582	-1.17469207354	-0.724585493614	-1.12319355161	-1.49415154433	-1.08474332245	-0.212479653393	0.288215123081	0.221023064787	0.133337708939	0.376181179884	0.633998016996	0.528086493784	0.228138380933	0.121581201329	0.212220268646	0.265187854294	0.300830994456	0.537909705976	0.954630363241	1.28986595773	1.41792989259	1.34332926522	0.917983786223	0.0722611127492	-0.694294862676	-0.656271663843	0.0969101182113	0.517184193646	-0.089190003102	-1.0502869796	-1.21420929955	-0.490848965666	0.218558547424	0.427243294008	0.557430063957	0.935604667553	1.16796665327	0.901212737235	0.515516168011	0.487514097154	0.585291771496	0.347546002034	0.00471692081077	0.169679702884	0.730795954916	
1	1	-0.998723067722	-0.398552073953	0.0343605740495	0.534435376976	1.2709112665	1.92586664153	2.04390655616	1.6170860831	1.05534583353	0.668621233838	0.46798179955	0.4126010386	0.476618004631	0.417563108828	-0.0968258320929	-0.89652063419	-1.22175669864	-0.665226330552	0.0303344150931	-0.274887834299	-1.55531690335	-2.43893890113	-1.89099489	-0.48635399322	0.508396526163	0.789327927094	0.971168022361	1.19653640239	0.890999156812	0.0520665856011	-0.326163929814	0.268971087687	0.791269611319	-0.0185191047504	-1.6887821572	-2.49247399943	-1.74722346011	-0.548028028141	0.0154690682207	0.267651924337	0.960941885094	1.78110150871	1.80365077938	0.996395248686	0.243223114185	0.0317582032677	0.0340001892993	-0.00951433666447	0.179181715018	0.690044946458	0.986373952168	-0.0662303227755	0.0168065763749	0.202886916168	0.418492243825	0.536235907986	0.603886445411	0.74121613483	0.943094769822	1.1458400956	1.30570925904	1.24010395222	0.64759386389	-0.418180618812	-1.27264926475	-1.2194021478	-0.395762565151	0.380569078566	0.554199679128	0.249645500709	-0.169719192641	-0.465529887999	-0.397387819999	0.150804203909	0.734021171711	0.61196016725	-0.22021616134	-0.802152431497	-0.452472892091	0.256348346202	0.374064626107	-0.0149309109973	-0.0636074779999	0.347995836793	0.404800793837	-0.236273156096	-0.814081860509	-0.659629258741	-0.226364914357	-0.278449588822	-0.678319391289	-0.761643365071	-0.486112919701	-0.335793787282	-0.32565722775	-0.0295839568953	0.446758669574	0.458625613689	-0.0724889852833	-0.3678794651	0.0268237533136	0.511303076724	0.212220268646	0.265187854294	0.300830994456	0.537909705976	0.954630363241	1.28986595773	1.41792989259	1.34332926522	0.917983786223	0.0722611127492	-0.694294862676	-0.656271663843	0.0969101182113	0.517184193646	-0.089190003102	-1.0502869796	-1.21420929955	-0.490848965666	0.218558547424	0.427243294008	0.557430063957	0.935604667553	1.16796665327	0.901212737235	0.515516168011	0.487514097154	0.585291771496	0.347546002034	0.00471692081077	0.169679702884	0.730795954916	0.834737533738	0.140433472689	-0.638483044014	-0.794605454584	-0.599761774138	-0.707991392744	-1.09864277324	-1.27645979151	-1.20753230607	-1.30319865013	-1.57227960149	-1.53277269949	-1.05501627549	-0.656220737466	-0.738845164237	-1.00917404366	-0.945463338952	-0.545456461395	-0.242787999153	-0.276959523089	
1	1	-0.472829870863	0.0185036075039	-0.215611742456	-0.427204025332	-0.0119570135792	0.311418958355	-0.332528508979	-1.24774831412	-0.863401805053	0.899779887758	2.19665386239	1.61008791356	-0.036514321864	-0.980307925991	-0.916420656081	-1.03220702311	-1.88199877444	-2.43191272034	-1.60359654743	0.0822138041242	1.10809344043	0.84025345816	0.0990626810811	-0.101344131555	0.266923624462	0.551580458951	0.408811418624	0.0565181535439	-0.211198226282	-0.3566332208	-0.449585746289	-0.442077822937	-0.257855952329	0.00656469260393	0.119417964622	-0.0138412141677	-0.183200514709	-0.082047494386	0.329483296011	0.748340001354	0.878903304226	0.78553233019	0.764713707721	0.899743579468	0.917172315132	0.588209518094	0.106933283671	-0.107356835242	0.116267327629	0.573225390456	0.94274807066	-0.233925804372	0.059367970495	0.357591596515	0.600398991631	0.761485068993	0.605356788316	0.137412092453	-0.128926529166	0.128231288746	0.345668781094	-0.298593372749	-1.61336014603	-2.37362966006	-1.77582550235	-0.423759803792	0.43435895554	0.303723112503	-0.301826369059	-0.742286274922	-0.869193314593	-0.758150008281	-0.355423677433	0.308536661917	0.827625000285	0.758281355886	0.2646446656	0.0687757544475	0.586005905391	1.36821130199	1.5998449062	1.02898816863	0.22031592281	-0.140173919832	0.0123464837486	0.181610079578	-0.00101487317873	-0.336052266297	-0.3866052121	-0.0752436095953	0.226781954089	0.189017541139	-0.0814686652339	-0.265677538744	-0.330210323528	-0.551933628698	-1.00825868039	-1.30304933469	-1.02863806515	-0.326517193557	0.297059966511	0.607211867619	0.337491687546	0.761032952238	0.839920831599	0.17375655361	-0.533942158814	-0.0272232198664	1.71806288764	3.00568517918	2.36030006752	0.463484073526	-0.66709521338	-0.221338628289	0.630996197606	0.632306390313	0.096984456261	0.0880282043974	0.684366957965	0.975815443779	0.493351680341	-0.193678134346	-0.329266071019	0.228565251373	1.13024700724	1.87857582634	1.90531270134	0.906842484743	-0.582691400906	-1.38763838227	-0.894753495649	0.199950913823	0.728751025829	0.407573912384	-0.0829652930997	-0.233721477021	-0.35397353831	-0.926527335917	-1.74101462997	-2.02521512371	-1.3628310281	-0.218386876625	0.530979789081	0.448466021862	-0.118296121994	-0.438086878263	-0.130470946361	0.449456132	0.631076787564	0.241360817545	-0.199430784191	-0.209029732888	-0.00661796101272	
1	1	-0.534793447499	-1.00821959918	-0.866551634383	0.0620492816372	0.85761169116	0.706575393564	-0.0268065144622	-0.275120516863	0.402946151709	1.32723610579	1.55878959901	0.947949622443	0.169363754919	-0.085297756947	0.192815384185	0.447904834489	0.229988309022	-0.341313601929	-0.726107702901	-0.516409922283	0.172258598949	0.815079237856	0.99147076358	0.750778289925	0.458857748879	0.337460821528	0.259435898395	0.0523370952826	-0.133299818774	0.0286408552965	0.502932910904	0.787697873243	0.531434996956	0.0091389948713	-0.298101950366	-0.380384329533	-0.57183346416	-0.853399566899	-0.848322171752	-0.600632455191	-0.727615218294	-1.41850127064	-1.80727506807	-1.03513577448	0.332842741176	0.815530853441	0.000575383724705	-0.861229567131	-0.622160828925	0.218069792217	0.384046841756	-1.0155363135	-1.03130879278	-0.841465842089	-0.63853228602	-0.583509592561	-0.760410556072	-1.03982626801	-1.07727070834	-0.689272897392	-0.221717384573	-0.195044796306	-0.520288856456	-0.482523969396	0.233212933727	0.870303497355	0.513247258883	-0.503506045369	-0.823160895361	0.126509803847	1.24251411674	1.16823395388	0.0976421682601	-0.519629508624	0.120924340626	1.26554216691	1.69541665329	1.12317625645	0.231094068939	-0.232595530466	-0.0439722202395	0.515177560835	0.900223775368	0.688773525313	0.00208178498092	-0.55662597272	-0.586786082738	-0.356032201568	-0.345061700101	-0.51765164783	-0.442089875117	-0.0739913174242	0.0517661418261	-0.419671341677	-1.05622923426	-1.11403367987	-0.457178866678	0.284718644834	0.436048165985	-0.0635805947508	-0.667000301215	-0.737065891155	0.379461196346	0.724002641429	1.46171318663	1.83874206388	1.32392316496	0.520827768442	0.498951395232	1.26295722851	1.57799944374	0.583938232335	-0.953345345505	-1.49772871725	-0.648461186346	0.33147913551	0.0547803632904	-1.31090534584	-2.27429616667	-1.83006485918	-0.664232002829	-0.305886156635	-1.25919627653	-2.37903408096	-2.21077052417	-0.648383025177	1.04128882413	1.67680660571	1.20840685396	0.322187750746	-0.421335434494	-0.741932022972	-0.433149606137	0.365546916142	0.880643167996	0.387423289023	-0.764154365507	-1.38903184065	-0.93833366242	-0.243474196021	-0.408505577585	-1.26940079906	-1.52983466216	-0.461476739632	1.04131904066	1.43382670704	0.342652773978	-0.987837495768	-1.16009588309	-0.166582616367	0.818193665257	0.948407219459	0.528571840908	
1	1	-0.704226816708	-1.04104520465	-0.831562243427	0.327031653033	1.60639578895	1.76875364295	0.839639419602	0.142299116587	0.530918139939	1.35491747527	1.5326338564	1.00565826718	0.519598325857	0.358642711828	0.0933164277401	-0.472498113437	-0.87129239948	-0.715246176013	-0.264333516579	0.0660347163108	0.329438134297	0.743108635217	1.13517438551	1.2102008774	1.08861230798	1.06796819783	1.03478712021	0.681039232217	0.18113745095	0.0276739812025	0.170569297683	-0.00548812438992	-0.652211071869	-1.05989332211	-0.685969479408	-0.0344476616121	0.0898441067801	-0.164432167294	0.0502064467249	0.862171365332	1.31501859703	0.630668541274	-0.748305002832	-1.75496353125	-1.92396309447	-1.59219915142	-1.19136687947	-0.852360391584	-0.634018253745	-0.627398145182	-0.71783099169	0.285141414358	-0.306930384324	-0.451631461564	0.213817424266	1.01588223754	1.05461379691	0.360233110605	-0.194393621494	-0.0337445667183	0.482849269381	0.617687877664	0.117099720412	-0.608061855128	-0.960723855695	-0.676548369466	-0.0145218641762	0.428801215468	0.225148667474	-0.389665507723	-0.685882567689	-0.284574508642	0.302620352497	0.274155197324	-0.361370055798	-0.675049161053	0.00584469371857	1.13921024965	1.57959162032	0.977907872805	0.126309969579	-0.101810913695	0.233970864629	0.395200240882	-0.0414863037281	-0.751736533443	-1.12852029372	-0.913909006098	-0.346406599577	0.103398351403	0.0839260012566	-0.430798148596	-1.16578982544	-1.73623823989	-1.84072918404	-1.37210553588	-0.462873128592	0.499430534126	1.01225162127	0.800692381881	0.0972172756777	-0.495147945976	0.706020789182	-1.04231022885	-1.12509998385	0.153357234796	0.798247138134	-0.131980697477	-1.27340287874	-1.07345700156	-0.111813643673	-0.161460219931	-1.49029276239	-2.4821131974	-2.02249969103	-0.974163614641	-0.705483139278	-1.16554862142	-1.30276557142	-0.778996381543	-0.250365373767	-0.124775779167	-0.0617605331259	0.193287353772	0.318150797654	0.0981391023056	-0.0178811921303	0.445525075316	1.18776479679	1.49758107179	1.21791662582	0.876329944582	0.895582648159	1.10856197192	1.14379387065	0.926567951752	0.615697712894	0.317749038747	0.010286055397	-0.408229234748	-0.980402547489	-1.44726444236	-1.232597233	-0.0802640182984	1.25660903212	1.50490035697	0.382337997738	-0.807154944823	-0.633896252765	0.64017626466	1.39999613766	0.792952648793	-0.251561359691	
1	1	0.18113745095	0.0276739812025	0.170569297683	-0.00548812438992	-0.652211071869	-1.05989332211	-0.685969479408	-0.0344476616121	0.0898441067801	-0.164432167294	0.0502064467249	0.862171365332	1.31501859703	0.630668541274	-0.748305002832	-1.75496353125	-1.92396309447	-1.59219915142	-1.19136687947	-0.852360391584	-0.634018253745	-0.627398145182	-0.71783099169	-0.615811727031	-0.268729681746	0.000922246419497	-0.0969260571583	-0.485893649342	-0.855879866112	-0.958972765523	-0.687617428133	-0.123055836786	0.360102470876	0.368408390645	0.0461544417057	0.0418310202357	0.628182567942	1.1791883221	0.978728456235	0.311821353193	0.127368915741	0.69672086151	1.25169541008	1.11183591699	0.610686528087	0.479073705066	0.685239031177	0.511770677479	-0.270843470431	-0.882076996893	-0.454491520899	0.977907872805	0.126309969579	-0.101810913695	0.233970864629	0.395200240882	-0.0414863037281	-0.751736533443	-1.12852029372	-0.913909006098	-0.346406599577	0.103398351403	0.0839260012566	-0.430798148596	-1.16578982544	-1.73623823989	-1.84072918404	-1.37210553588	-0.462873128592	0.499430534126	1.01225162127	0.800692381881	0.0972172756777	-0.495147945976	-0.515207417312	-0.0243953851039	0.539474007575	0.855563274559	0.970152199127	1.07741824092	1.16408618039	1.00448686754	0.483431402165	-0.173048517087	-0.505726845781	-0.202780191525	0.549708493014	1.10828504442	0.914472718457	0.056353416039	-0.793859463031	-1.0623570854	-0.792894781127	-0.397459691184	-0.0760575985262	0.232678657032	0.410783089747	0.0985328751288	-0.738467059605	-1.52719722023	-1.655823577	-1.12255903189	1.21791662582	0.876329944582	0.895582648159	1.10856197192	1.14379387065	0.926567951752	0.615697712894	0.317749038747	0.010286055397	-0.408229234748	-0.980402547489	-1.44726444236	-1.232597233	-0.0802640182984	1.25660903212	1.50490035697	0.382337997738	-0.807154944823	-0.633896252765	0.64017626466	1.39999613766	0.792952648793	-0.251561359691	-0.387201091714	0.42045351833	1.11192286599	1.09886793312	0.8873155658	1.11850988495	1.59613202866	1.58456355325	0.748816411683	-0.495075592191	-1.42193299579	-1.55507630076	-0.917427715723	-0.0318296441827	0.379096661161	-0.0289258173032	-0.842865787675	-1.24583554569	-0.862415612512	-0.125795815858	0.28016662992	0.162489824214	-0.148736561758	-0.384316548186	-0.680113245145	-1.19070594689	-1.5648930376	-1.19102486922	
