Intercept,Adult Mortality,infant deaths,Alcohol,percentage expenditure,Measles , BMI ,under-five deaths ,Total expenditure,Diphtheria , HIV/AIDS,Population, thinness  1-19 years, thinness 5-9 years,Income composition of resources,Schooling
1.0,0.7566288060547509,0.24374476730232772,-1.1229475703189153,-0.35690875185899984,-0.10617092954682675,-0.9635595557445971,0.23813448215455457,0.958840474763501,-0.8879412925710606,-0.31238861476066243,0.2709132892350808,2.685909126938892,2.663653819566949,-0.8334621299791423,-0.7227990941513891
1.0,0.8204896327308498,0.2602996139303411,-1.1229475703189153,-0.35563283022508096,-0.1718276634215234,-0.9888782436779846,0.2565565013454375,0.9675410896611214,-1.0270062741884676,-0.31238861476066243,-0.20338219859559417,2.751157247165009,2.706642888688897,-0.8498525987675554,-0.758583161230038
1.0,0.7965418227273128,0.2768544605583546,-1.1229475703189153,-0.3558058783181048,-0.17797678351250704,-1.0141969316113721,0.27497852053632044,0.9457895524170703,-0.9342962864435296,-0.31238861476066243,0.24245170869106714,2.79465599398242,2.749631957810845,-0.8826335363443814,-0.7943672283086869
1.0,0.8284722360653622,0.30168673050037476,-1.1229475703189153,-0.35298277924171817,0.05578895930117868,-1.0395156195447597,0.299541212790831,1.1154515429206726,-0.7952313048261226,-0.31238861476066243,-0.15554826034567545,2.8381547407998315,2.8141155614937667,-0.9208779635173449,-0.8301512953873358
1.0,0.8524200460688993,0.3182415771283882,-1.1229475703189153,-0.39340313237426,0.07820349382637723,-1.05977056989147,0.3241039050453416,0.8326815587480013,-0.7488763109536536,-0.31238861476066243,-0.16574657007640106,2.9034028610259486,2.8571046306157144,-0.9700493698825841,-0.9375034966232831
1.0,0.8843504594069489,0.3430738470704084,-1.1229475703189153,-0.352132631062321,-0.023356167031159555,-1.0850892578248574,0.3548072703634798,1.411272449439775,-0.8415862986985916,-0.31238861476066243,-0.16710138722802387,2.9469016078433596,2.900093699737662,-1.00283030745941,-1.0448556978592305
1.0,0.9003156660759736,0.36790611701242854,-1.1229475703189153,-0.36516339517640745,0.06312823166783661,-1.1104079457582448,0.3793699626179904,1.5069792133136026,-0.9806512803159987,-0.31238861476066243,-0.2039962190145819,2.9904003546607716,2.964577303420584,-1.0793191618053377,-1.1522078990951772
1.0,0.9482112860830478,0.3927383869544487,-1.1179822864752258,-0.38272657517122755,-0.062036115990572974,-1.1357266336916323,0.4039326548725009,1.0327957013932765,-0.9342962864435296,-0.31238861476066243,-0.16928392735735034,3.033899101478183,3.0075663725425317,-1.0847826514014753,-1.2237760332524756
1.0,1.0120721127591468,0.4092932335824621,-1.1204649283970707,-0.3912350216601587,-0.10746026117880719,-1.1610453216250198,0.42235467406338384,0.3367465095836236,-0.9806512803159987,-0.31238861476066243,0.16983718914241594,3.077397848295594,3.05055544166448,-1.1831254641319537,-1.3311282344884223
1.0,1.0120721127591468,0.4258480802104756,-1.1179822864752258,-0.38767479173593516,-0.023256987674853364,-1.1863640095584074,0.44077669325426677,0.6412680310003466,-1.2124262496783438,-0.31238861476066243,-0.17127268286391242,3.120896595113005,3.0935445107864274,-1.2377603600933302,-1.4384804357243697
1.0,0.9801416994210974,0.4341255035244823,-1.1204649283970707,-0.3966489812959109,-0.09208746095134802,-1.211682697491795,0.45305803938152206,1.1937570769992585,-1.2124262496783438,-0.31238861476066243,-0.20437289940987916,3.142645968521711,3.1365335799083756,-1.2869317664585693,-1.5100485698816675
1.0,0.9961069060901221,0.45068035015249575,-1.1204649283970707,-0.3887411791381705,-0.17440632668548428,-1.231937647838505,0.46533938550877735,1.2329098440385515,-3.669240924919202,-0.31238861476066243,0.13437654812109798,3.1861447153391222,3.1795226490303232,-1.3688841104006346,-1.9036733077468069
1.0,1.0120721127591468,0.45068035015249575,-1.1229475703189153,-0.39113330040358457,-0.14147878039182976,-1.2521925981852151,0.47762073163603264,1.245960766384983,-2.000461145510317,-0.31238861476066243,-0.1744597513696171,3.2296434621565338,3.222511718152271,-1.412592027169736,-2.011025508982754
1.0,-1.3188480609184667,0.45895777346650246,-1.1229475703189153,-0.3878363697614073,0.02593597305301601,-1.2724475485319249,0.47762073163603264,0.7848281768110875,-2.2322361148726624,-0.31238861476066243,0.10400906386967632,3.273142208973945,-0.5820208991401132,-1.5874236942461415,-2.118377710218701
1.0,1.1797067827839067,0.45895777346650246,-1.1229475703189153,-0.39142574695433796,0.6483856132306536,-1.2927024988786349,0.47762073163603264,0.8022294066063289,-2.371301096490069,-0.31238861476066243,-0.1659188609322156,-0.5982462577756652,-0.5390318300181655,-1.5928871838422791,-2.225729911454648
1.0,1.2196197994564686,0.45895777346650246,-1.1229475703189153,-0.39151090562546437,0.4272156486678538,-1.312957449225345,0.47762073163603264,0.9762417045587419,-2.7884960413422903,-0.31238861476066243,-0.2038624153464827,-0.5547475109582539,-0.5175372954571915,-1.6038141630345546,-2.368866179769244
1.0,-0.7520832241680881,-0.269455478166089,0.016585071807787042,-0.18991250402873378,-0.220623906724168,1.006234365472952,-0.27154138212653983,0.01917406582046923,0.6881284990928861,-0.31238861476066243,-0.20762287338543506,-0.7939906184540162,-0.7754717101888786,0.7127054257278207,0.7443476560732208
1.0,-1.2789350442459049,-0.269455478166089,-0.00575870548881493,-0.15365049844123474,-0.220623906724168,0.9657244647795321,-0.2654007090629122,-0.033029623565254795,0.6417735052204171,-0.31238861476066243,-0.2039311556500303,-0.7939906184540162,-0.7754717101888786,0.707241936131683,0.7443476560732208
1.0,-0.6722571908229643,-0.269455478166089,0.05630734255730176,-0.15244056113380608,-0.220623906724168,0.9302783016727895,-0.2654007090629122,-0.128736387439082,0.6881284990928861,-0.31238861476066243,-0.20392153030393256,-0.7722412450453107,-0.7539771756279047,0.6963149569394076,0.7443476560732208
1.0,-0.6562919841539396,-0.269455478166089,0.15064773558739908,-0.16292197688560864,-0.2197312925174123,0.8948321385660467,-0.2654007090629122,-0.15918853958075443,0.6881284990928861,-0.31238861476066243,-0.20799102157866042,-0.7722412450453107,-0.7539771756279047,0.6580705297664439,0.7443476560732208
1.0,-0.6403267774849148,-0.269455478166089,0.20774849978982654,-0.14892368153122248,-0.21784688474759473,0.8593859754593044,-0.2654007090629122,-0.1069848501950304,0.6881284990928861,-0.31238861476066243,-0.2038419863302074,-0.7504918716366049,-0.7324826410669307,0.5815816754205163,0.42229105236538006
1.0,-0.6163789674813778,-0.2611780548520823,0.18540472249322457,-0.3736580190647771,-0.21963211316110612,0.8188760747658842,-0.2654007090629122,-0.26794622580101274,0.6881284990928861,-0.31238861476066243,-0.20389698425171576,-0.7504918716366049,-0.7324826410669307,0.5105563106707264,0.13601851573618762
1.0,-0.6163789674813778,-0.2611780548520823,0.31201946050730256,-0.19953285832116963,-0.220623906724168,0.7783661740724643,-0.2654007090629122,-0.07218239060454772,0.6417735052204171,-0.31238861476066243,-0.16647173626913406,-0.7287424982278993,-0.7109881065059568,0.48870235228617565,0.028666314500240292
1.0,-1.3348132675874915,-0.2611780548520823,0.2673319059140986,-0.3766151470935623,-0.220623906724168,0.7327925357923668,-0.2654007090629122,-0.03737993101406504,0.6881284990928861,-0.31238861476066243,-0.16619071307443653,-0.7069931248191935,-0.7109881065059568,0.4449944355170742,-0.042901819657057506
1.0,-1.2709524409113926,-0.2611780548520823,0.25988398014856456,-0.3791030793951425,-0.21844196088543186,0.6872188975122694,-0.2654007090629122,0.0626771403085724,0.6417735052204171,-0.31238861476066243,-0.2076108913911777,-0.7069931248191935,-0.6894935719449828,0.3903595395556974,-0.18603808797165372
1.0,-0.5525181408052787,-0.2611780548520823,0.19285264825875842,-0.3955609554799716,-0.2138797104953472,-1.6370366547727053,-0.2654007090629122,-0.041730238462875276,0.5954185113479481,-0.31238861476066243,-0.16554855484428987,-0.6852437514104879,-0.667999037384009,0.35211511238273363,-0.2576062221289515
1.0,-1.2230568209043182,-0.2611780548520823,0.15561301943108855,-0.382090196754106,-0.22002883058633088,0.5960716209520741,-0.2654007090629122,0.07137775520619326,0.6417735052204171,-0.31238861476066243,-0.20361069409034824,-0.6634943780017822,-0.667999037384009,0.29201672682521973,-0.47231062460084555
1.0,-1.2070916142352934,-0.2611780548520823,0.0016892202767191343,-0.27129805465426066,-0.21992965123002467,0.545434245085299,-0.2654007090629122,0.18448574887526178,0.5954185113479481,-0.31238861476066243,-0.2033913270580438,-0.6634943780017822,-0.6465045028230351,0.270162768440669,-0.43652655752219666
1.0,-1.1991090109007811,-0.2611780548520823,-0.060376827769397554,-0.389069136707288,-0.21983047187371849,0.494796869218524,-0.2654007090629122,0.13663236693834802,0.5954185113479481,-0.31238861476066243,-0.203211355800697,-0.6417450045930766,-0.6250099682620611,0.2319183412677052,-0.5080946916794951
1.0,-1.2230568209043182,-0.2611780548520823,-0.19940477539269894,-0.33800992269917396,-0.219037037023269,0.4441594933517489,-0.2654007090629122,0.14968328928477911,0.6417735052204171,-0.31238861476066243,-0.207982929473534,-0.6199956311843708,-0.6035154337010872,0.21006438288315446,-0.5080946916794951
1.0,-1.2310394242388307,-0.2611780548520823,-0.07030739545677622,-0.34273577964785074,-0.21883867831065662,0.39858585507165145,-0.2654007090629122,0.01917406582046923,0.5954185113479481,-0.31238861476066243,-0.2075192376531142,-0.5982462577756652,-0.6035154337010872,0.16635646611405303,-0.543878758758144
1.0,-1.2549872342423678,-0.2611780548520823,-0.21678326884561158,-0.3452910994349863,-0.15496717284947137,0.3479484792048764,-0.2654007090629122,0.13228205948953775,0.5954185113479481,-0.31238861476066243,-0.20748014000834547,-0.5982462577756652,-0.5820208991401132,0.13357552853722693,-0.5080946916794951
1.0,-1.2549872342423678,-0.09562958857194785,-1.1229475703189153,-0.36659906044241425,-0.220623906724168,1.026489315819662,-0.12416522859947637,0.5455612671265193,0.50270852360301,-0.31238861476066243,0.34724624466272963,0.24997930516385614,0.19178234505494793,0.5979721442089293,0.8159157902305192
1.0,-0.44874429745661787,-0.09562958857194785,-0.9938501903829924,-0.08786216013358934,-0.2181444228165133,0.9657244647795321,-0.12416522859947637,0.5064085000872265,0.50270852360301,-0.31238861476066243,0.336247355998163,0.22822993175515055,0.19178234505494793,0.5761181858243786,0.8159157902305192
1.0,-0.4407616941221055,-0.09562958857194785,-0.9615758453990118,-0.08133724548444496,-0.21883867831065662,0.9100233513260795,-0.12416522859947637,0.08007837010381373,0.50270852360301,-0.31238861476066243,0.32527737176524096,0.22822993175515055,0.19178234505494793,0.5488007378436902,0.8159157902305192
1.0,-0.41681388411856835,-0.09562958857194785,-0.9864022646174585,-0.10801840435024394,-0.20951581881787493,0.8543222378726268,-0.12416522859947637,-0.28969776304506434,0.50270852360301,-0.31238861476066243,0.31468254888332053,0.22822993175515055,0.19178234505494793,0.5050928210745887,0.6727795219159229
1.0,-0.3928660741150312,-0.09562958857194785,-1.0137113257577497,-0.15253119215542255,-0.2104084330246306,0.7986211244191742,-0.12416522859947637,-0.36365298967483994,0.50270852360301,-0.31238861476066243,0.30471760410710047,0.22822993175515055,0.19178234505494793,0.45045792511321187,0.5296432536013268
1.0,-0.3609356607769817,-0.10390701188595458,-1.0012981161485266,-0.197254073026838,-0.21001171559940585,0.7429200109657216,-0.13030590166310402,-0.2592456109033919,0.50270852360301,-0.31238861476066243,-0.15768318482483695,0.24997930516385614,0.21327687961592198,0.4012865187479728,0.35072291820808166
1.0,-0.33698785077344456,-0.10390701188595458,-1.0112286838359053,-0.37293906805191296,-0.19910198640572516,0.6922826350989466,-0.13030590166310402,-0.7638812749653904,0.409998535858072,-0.31238861476066243,-0.15853301202654385,0.24997930516385614,0.21327687961592198,0.3575786019788713,0.1718025828148365
1.0,-0.3130400407699075,-0.10390701188595458,-1.0161939676795944,-0.21530137672533128,-0.220623906724168,-1.6370366547727053,-0.13030590166310402,-0.9291929580201832,0.50270852360301,-0.31238861476066243,-0.20754474907927592,0.24997930516385614,0.21327687961592198,0.31933417480590753,0.06445038157888983
1.0,-0.28909223076637036,-0.10390701188595458,-1.0360551030543517,-0.24377914245278845,-0.1269985943711263,0.5910078833653964,-0.13030590166310402,-1.1293071006654585,0.50270852360301,-0.31238861476066243,0.27150132973761,0.2717286785725617,0.23477141417689582,0.2974802164213574,0.06445038157888983
1.0,-0.25716181742832084,-0.1121844351999613,-1.0012981161485266,-0.3959892452547795,0.007686971492677371,0.545434245085299,-0.13644657472673166,-1.1815107900511823,0.17822356649572688,-0.31238861476066243,0.26455236932871123,0.2717286785725617,0.23477141417689582,0.2646992788445313,-0.042901819657057506
1.0,-1.2310394242388307,-0.1121844351999613,-1.0137113257577497,-0.2721220180556237,0.10557699616688518,0.494796869218524,-0.13030590166310402,-1.0510015665868724,0.08551357875078884,-0.31238861476066243,-0.16142230526027176,0.29347805198126753,0.2562659487378697,0.2264548516715675,-0.15025402089300482
1.0,1.4351500894883027,0.2851318838723613,0.9426105086558481,-0.3838116481695708,0.9396753827019285,-0.7812650026242071,0.34866659729985217,-1.15105863790951,-0.9342962864435296,0.002674887221192244,-0.16980870747313684,0.793713640381498,0.7291457090792962,-0.5712146293645335,-0.2576062221289515
1.0,1.4910283128298893,0.30168673050037476,0.8855097444534207,-0.37699241281955603,0.6246817470734746,-0.811647428144272,0.37322928955436274,-0.7377794302725286,-0.33168136610143234,0.05242175595516927,-0.17112377393291053,0.8154630137902036,0.7721347782012439,-0.5930685877490842,-0.2576062221289515
1.0,1.5149761228334266,0.3265190004423949,0.9202667313592461,-0.2518064952446581,0.22151766368881926,-0.8420298536643371,0.4039326548725009,-1.1554089453583205,-0.4243913538463704,0.10216862468914636,-0.20434710405020423,0.8589617606076152,0.7936293127622177,-0.6750209316911495,-0.6512309599940906
1.0,1.5389239328369637,0.3513512703844151,0.8755791767660421,-0.2610355682323138,-0.07691301943650121,-0.8673485415977246,0.4346360201906391,-1.1206064857678377,-0.6098113293362465,0.085586335111154,0.13579033826341408,0.8807111340163208,0.8366183818841658,-0.7460462964409393,-0.973287563701932
1.0,1.570854346175013,0.37618354032643525,0.8110304867980807,-0.2884636490364175,-0.10260047271980398,-1.8092037327197406,0.471480058572405,-1.1162561783190272,-0.33168136610143234,0.085586335111154,0.12373119927050219,0.924209880833732,0.8796074510061135,-0.7842907236139032,-1.1164238320165283
1.0,1.6027847595130627,0.4010158102684554,0.6149017749723519,-0.2763699194621708,0.057772546427302444,-0.9281133926378546,0.5083240969541708,-0.6899260483356148,-3.6228859310467327,0.085586335111154,0.1120958310460531,0.9677086276511436,0.9225965201280611,-0.8279986403830046,-1.2953441674097734
1.0,1.6187499661820874,0.4258480802104756,0.6297976265034201,-0.2553388448332958,-0.1943413773030281,-0.9534320805712422,0.5451681353359367,-0.9204923431225625,-0.7025213170811845,0.10216862468914636,-0.17714163117194665,1.0112073744685548,0.9655855892500093,-0.8935605155366565,-1.4384804357243697
1.0,1.650680379520137,0.45068035015249575,0.45104740813060384,-0.2923485710190919,-0.1200560394296931,-0.9787507685046297,0.5758715006540749,-1.1206064857678377,-0.5171013415913084,0.10216862468914636,-0.16547558393139544,1.0329567478772603,1.008574658371957,-0.9700493698825841,-1.5816167040389655
1.0,-0.4008486774495436,-0.20323609165403522,0.8433048317820613,0.08437967812238684,-0.2205247273678618,1.2189113441134074,-0.21627532455389104,-0.5072131354855809,0.456353529730541,-0.31238861476066243,0.4021618538456205,-0.8374893652714276,-0.8614498484327742,1.056905270284494,1.8536537355113412
1.0,-0.3928660741150312,-0.20323609165403522,0.9301972990466245,0.17218598485148773,-0.220623906724168,1.1885289185933423,-0.2101346514902634,-0.4202069865093742,0.456353529730541,-0.31238861476066243,0.3958927438407467,-0.8374893652714276,-0.8614498484327742,1.0459782910922186,1.8536537355113412
1.0,-1.2470046309078553,-0.1949586683400285,0.9475757924995373,0.2471060867673894,-0.22042554801155562,1.1581464930732772,-0.2101346514902634,-0.3288505300843572,0.31728854811313395,-0.31238861476066243,-0.14703336402140815,-0.8374893652714276,-0.8614498484327742,1.040514801496081,1.8178696684326916
1.0,-1.2470046309078553,-0.1949586683400285,0.8879923863752652,0.45792790835606306,-0.22032636865524943,-1.6066542292526402,-0.2101346514902634,-0.02867931611644456,0.31728854811313395,-0.31238861476066243,0.3833564261855376,-0.8374893652714276,-0.8614498484327742,1.0077338639192548,1.7820856013540434
1.0,-0.3769008674460065,-0.1866812450260218,0.8979229540626441,-0.290762389742796,-0.2189378576669628,1.0973816420331468,-0.20399397842663575,0.2584409755050374,0.456353529730541,-0.31238861476066243,0.37720940759134325,-0.8374893652714276,-0.8614498484327742,0.9312450095733279,1.674733400118096
1.0,-0.33698785077344456,-0.1866812450260218,0.9426105086558481,0.3974928763033881,-0.22032636865524943,1.0669992165130822,-0.20399397842663575,0.7282741799765533,0.456353529730541,-0.31238861476066243,-0.2012191221085981,-0.8374893652714276,-0.8614498484327742,0.8875370928042264,1.5673811988821487
1.0,-0.33698785077344456,-0.1866812450260218,0.9624716440306055,0.4064158558835922,-0.220623906724168,1.036616790993017,-0.20399397842663575,0.3062943574419512,0.409998535858072,-0.31238861476066243,-0.14581741875109533,-0.8374893652714276,-0.8614498484327742,0.8766101136119511,1.4958130647248509
1.0,-0.3130400407699075,-0.1866812450260218,0.9004055959844888,0.23124264325058017,-0.220623906724168,1.006234365472952,-0.1978533053630081,0.23233913081217558,0.31728854811313395,-0.31238861476066243,-0.1512854813318313,-0.815739991862722,-0.8614498484327742,0.8547561552274003,1.4958130647248509
1.0,-0.3290052474389322,-0.17840382171201508,0.7986172771888573,0.14908997037732258,-0.220623906724168,0.9809156775395644,-0.1978533053630081,0.3149949723395717,0.31728854811313395,-0.31238861476066243,-0.15187230092025375,-0.815739991862722,-0.8614498484327742,0.8219752176505744,1.424244930567553
1.0,-0.3290052474389322,-0.17840382171201508,0.7439991549082747,-0.3427579759192478,-0.220623906724168,0.9505332520194993,-0.1978533053630081,0.3889501989693473,0.6417735052204171,-0.31238861476066243,0.3477030227021028,-0.815739991862722,-0.8399553138718003,0.811048238458299,1.4958130647248509
1.0,-1.239022027573343,-0.17840382171201508,0.7688255741267214,0.0115954227416673,-0.220623906724168,0.9201508264994342,-0.1978533053630081,0.38459989152053703,0.6417735052204171,-0.31238861476066243,0.3417859618602555,-0.815739991862722,-0.8399553138718003,0.7837307904776105,1.4958130647248509
1.0,-0.24917921409380847,-0.17840382171201508,0.7663429322048767,-0.36469574370145447,-0.220623906724168,0.8897684009793695,-0.19171263229938046,0.9849423194563631,0.5490635174754791,-0.31238861476066243,-0.15352635560144634,-0.7939906184540162,-0.8399553138718003,0.7564133424969222,1.531597131803499
1.0,-0.24119661075929608,-0.17012639839800836,0.8135131287199252,-0.13008880747831725,-0.220623906724168,0.8593859754593044,-0.19171263229938046,1.0240950864956562,0.409998535858072,-0.31238861476066243,-0.154242464315108,-0.7939906184540162,-0.8399553138718003,0.7891942800737483,1.4958130647248509
1.0,-1.2470046309078553,-0.2611780548520823,-0.15471722079949488,-0.22935452300858458,-0.21933457509218757,0.8087485995925294,-0.2654007090629122,-0.642072666398701,0.409998535858072,-0.31238861476066243,-0.20761224007536544,-0.5982462577756652,-0.6035154337010872,0.5870451650166539,0.2075866498934854
1.0,-0.3609356607769817,-0.2611780548520823,-0.18450892386163092,-0.2385543134454704,-0.21963211316110612,0.7682386988991091,-0.2654007090629122,-0.611620514257029,0.50270852360301,-0.31238861476066243,-0.20392483812936144,-0.5982462577756652,-0.6035154337010872,0.5706546962282409,0.2075866498934854
1.0,-0.3769008674460065,-0.2611780548520823,-0.15968250464318423,-0.24155448124191012,-0.220623906724168,0.7327925357923668,-0.2654007090629122,-0.642072666398701,0.50270852360301,-0.31238861476066243,-0.16711906208922106,-0.6199956311843708,-0.6035154337010872,0.5488007378436902,0.2075866498934854
1.0,-0.32102264410441983,-0.2611780548520823,-0.11002966620629094,-0.24903520403539844,-0.220623906724168,0.6973463726856242,-0.2654007090629122,-0.9770463399570968,0.50270852360301,-0.31238861476066243,-0.16720908320958364,-0.6199956311843708,-0.6035154337010872,0.5324102690552771,0.2075866498934854
1.0,-0.28909223076637036,-0.2611780548520823,-0.07527267930046545,-0.2698888277974116,-0.22042554801155562,0.6619002095788818,-0.2654007090629122,-0.6072702068082187,0.456353529730541,-0.31238861476066243,-0.16718452296069114,-0.6199956311843708,-0.6035154337010872,0.48323886269003796,0.06445038157888983
1.0,-0.24917921409380847,-0.2611780548520823,-0.14230401119027158,-0.2830438344075446,-0.220623906724168,-1.6421003923593827,-0.2654007090629122,-0.611620514257029,0.409998535858072,-0.31238861476066243,-0.16702448383597152,-0.6199956311843708,-0.6035154337010872,0.5105563106707264,-0.0786858867357064
1.0,-1.2310394242388307,-0.2611780548520823,-0.14230401119027158,-0.3957959343162175,-0.220623906724168,-1.6724828178794477,-0.2654007090629122,-0.9378935729178038,0.2245785603681959,-0.31238861476066243,-0.20760940074023335,-0.6199956311843708,-0.6035154337010872,0.48870235228617565,0.06445038157888983
1.0,-0.28909223076637036,-0.2611780548520823,-0.13485608542473754,-0.3720946774002325,-0.2205247273678618,0.5859441457787192,-0.2654007090629122,-0.716027893028477,0.17822356649572688,-0.31238861476066243,-0.20386809401674685,-0.6199956311843708,-0.6035154337010872,0.41221349794024814,-0.15025402089300482
1.0,-0.21724880075575895,-0.2611780548520823,-0.1298908015810483,-0.2583950407945759,-0.20703633491022022,0.5606254578453318,-0.2654007090629122,-0.5985695919105979,0.13186857262325788,-0.31238861476066243,-0.20761276535236486,-0.6199956311843708,-0.6035154337010872,0.3302611539981829,-0.32917435628624997
1.0,-0.24917921409380847,-0.2611780548520823,-0.07030739545677622,-0.3859424223779549,0.005604205010247418,0.5403705074986215,-0.2654007090629122,-0.3070989928403057,-3.483820949429326,-0.31238861476066243,-0.1657088069191444,-0.6199956311843708,-0.6035154337010872,0.25923578924839363,-0.43652655752219666
1.0,-0.28909223076637036,-0.2611780548520823,-0.17954364001794157,-0.34186279943618236,-0.043787114430234336,0.5201155571519115,-0.2654007090629122,-0.19834130662004737,0.31728854811313395,-0.31238861476066243,-0.2079814956092923,-0.6199956311843708,-0.6035154337010872,0.1991374036908791,-0.43652655752219666
1.0,-0.27312702409734557,-0.2611780548520823,-0.3731897099218257,-0.39326417460765684,-0.22022718929894325,0.5049243443918792,-0.2654007090629122,-0.17223946192718553,0.456353529730541,-0.31238861476066243,-0.20758151846923634,-0.6199956311843708,-0.6035154337010872,0.1390390181333646,-0.47231062460084555
1.0,-0.27312702409734557,-0.2611780548520823,-0.41539462259318505,-0.36492692039643354,-0.21665673247192047,0.4897331316318464,-0.2654007090629122,-0.2418443811081505,0.456353529730541,-0.31238861476066243,-0.20329254658879878,-0.5982462577756652,-0.6035154337010872,0.07347714297971242,-0.47231062460084555
1.0,-0.21724880075575895,-0.2611780548520823,-0.41539462259318505,-0.36719244797469464,-0.21378053113904102,0.46947818128513646,-0.2654007090629122,-0.00692777887239259,0.456353529730541,-0.31238861476066243,-0.20752659153110628,-0.5982462577756652,-0.6035154337010872,0.06801365338357473,-0.36495842336489887
1.0,-0.20926619742124658,-0.2611780548520823,-0.40546405490580634,-0.3788132531269389,-0.21913621637957517,0.4542869685251041,-0.2654007090629122,0.12793175204072751,0.409998535858072,-0.31238861476066243,-0.2027858530378036,-0.5982462577756652,-0.5820208991401132,0.040696205402886314,-0.32917435628624997
1.0,-1.2949002509149297,-0.2611780548520823,1.2852150938704123,5.726055243104356,-0.186902925580064,1.4163971099938295,-0.2654007090629122,1.5069792133136026,0.363643541985603,-0.31238861476066243,-0.1747175204095829,-0.9244868589062504,-0.9259334521156961,1.6633526154557767,2.96295981494946
1.0,-0.855857067516749,-0.2611780548520823,1.3249373646199267,6.275036335929609,-0.20495356842779025,1.3860146844737649,-0.2654007090629122,1.4808773686207404,0.31728854811313395,-0.31238861476066243,0.12015678866607929,-0.9244868589062504,-0.9259334521156961,1.6469621466673638,2.927175747870812
1.0,-0.855857067516749,-0.2611780548520823,1.3646596353694413,6.263746589496719,-0.20088721481923655,1.3606959965403773,-0.2654007090629122,1.4808773686207404,0.363643541985603,-0.31238861476066243,0.11463287636329529,-0.9244868589062504,-0.9259334521156961,1.6305716778789507,2.8556076137135142
1.0,-0.8398918608477243,-0.2611780548520823,1.4316909672592477,5.849386529849993,-0.20177982902599223,1.3303135710203124,-0.2654007090629122,1.411272449439775,0.363643541985603,-0.31238861476066243,-0.2048608959390296,-0.9244868589062504,-0.9259334521156961,1.6141812090905376,2.7482554124775667
1.0,-0.8319092575132119,-0.2611780548520823,1.48630908953983,4.649361637450236,-0.2136813517827348,1.3049948830869247,-0.2654007090629122,1.411272449439775,0.363643541985603,-0.31238861476066243,-0.20486443091126902,-0.9027374854975446,-0.9259334521156961,1.6141812090905376,2.6409032112416195
1.0,-0.8159440508441871,-0.2611780548520823,1.5111355087582767,3.680739757163317,-0.21030925366832443,1.2796761951535371,-0.2654007090629122,1.5417816729040854,0.363643541985603,-0.31238861476066243,-0.20495327370755176,-0.9027374854975446,-0.9259334521156961,1.6032542298982624,2.497766942927024
1.0,-0.8159440508441871,-0.2611780548520823,1.5458924956641023,4.462578835129096,-0.21417724856426576,1.2543575072201496,-0.2654007090629122,1.2285595365897413,0.363643541985603,-0.31238861476066243,-0.20501609399734902,-0.9027374854975446,-0.9259334521156961,1.5814002715137117,2.497766942927024
1.0,-0.8159440508441871,-0.2611780548520823,1.496239657227209,0.09872375197286554,-0.21953293380479993,1.2341025568734396,-0.25926003599928454,1.1198018503694829,0.363643541985603,-0.31238861476066243,-0.20763134880080433,-0.9027374854975446,-0.9259334521156961,1.5650098027252985,2.461982875848374
1.0,-0.8159440508441871,-0.2611780548520823,1.4341736091810924,3.120544415894969,-0.220623906724168,1.208783868940052,-0.25926003599928454,1.102400620574242,0.363643541985603,-0.31238861476066243,-0.20764976188913586,-0.9027374854975446,-0.9259334521156961,1.5486193339368854,2.927175747870812
1.0,-0.8079614475096747,-0.2611780548520823,1.4316909672592477,-0.06814162639392427,-0.21963211316110612,1.1834651810066645,-0.25926003599928454,1.0849993907790003,0.363643541985603,-0.31238861476066243,-0.2076927920130625,-0.9027374854975446,-0.9259334521156961,1.521301885956197,2.927175747870812
1.0,-0.79199624084065,-0.2611780548520823,1.3174894388543927,-0.06277673774953496,-0.2136813517827348,-1.5813355413192527,-0.2654007090629122,1.1372030801647246,0.363643541985603,-0.31238861476066243,-0.2077307539237784,-0.9027374854975446,-0.9259334521156961,1.5103749067639216,3.0703120161854076
1.0,-0.7760310341716252,-0.2611780548520823,1.3497637838383736,1.780056171360273,-0.21159858530030487,-1.6117179668393178,-0.2654007090629122,1.0284453939444664,0.409998535858072,-0.31238861476066243,-0.20520828859243945,-0.9027374854975446,-0.904438917554722,1.4939844379755087,3.034527949106759
1.0,-0.7600658275026005,-0.2611780548520823,1.3174894388543927,-0.3710626727712358,-0.21745016732236996,1.0872541668597921,-0.25926003599928454,1.0588975460861387,0.363643541985603,-0.31238861476066243,-0.2052429284810508,-0.9027374854975446,-0.904438917554722,1.4775939691870956,2.8556076137135142
1.0,-0.7441006208335758,-0.2611780548520823,1.240527539277208,1.3449327293662676,-0.20663961748499546,1.056871741339727,-0.25926003599928454,0.9675410896611214,0.363643541985603,-0.31238861476066243,-0.2077571739371824,-0.9027374854975446,-0.904438917554722,1.4612035003986825,2.99874388202811
1.0,-0.8159440508441871,-0.269455478166089,1.9331846354718705,4.350507816154349,-0.20901992203634398,0.9606607271928546,-0.27154138212653983,2.2856842466506526,0.6417735052204171,-0.31238861476066243,-0.08677080409784012,-0.6634943780017822,-0.6250099682620611,1.4229590732257187,1.3526767964102546
1.0,-0.7999788441751624,-0.269455478166089,1.809052539379637,-0.3459316472427808,-0.220623906724168,0.935342039259467,-0.27154138212653983,2.25523209450898,0.50270852360301,-0.31238861476066243,-0.08765383732391667,-0.6634943780017822,-0.6250099682620611,1.3956416252450303,1.2811086622529562
1.0,-1.2869176475804174,-0.269455478166089,1.9182887839408023,4.082228811157215,-0.21705344989714523,0.9100233513260795,-0.27154138212653983,2.2682830168554107,0.363643541985603,-0.31238861476066243,-0.08835492595472962,-0.6634943780017822,-0.6250099682620611,1.3792511564566172,1.2811086622529562
1.0,-0.7600658275026005,-0.269455478166089,1.8636706616602194,4.30622115522835,-0.2138797104953472,0.8897684009793695,-0.27154138212653983,-1.7470507583965253,0.2245785603681959,-0.31238861476066243,-0.08889934007295444,-0.6852437514104879,-0.6250099682620611,1.3573971980720665,1.2811086622529562
1.0,-0.7441006208335758,-0.269455478166089,1.8785665131912876,3.823432734755843,-0.2154665801962462,0.8644497130459821,-0.27154138212653983,2.2682830168554107,0.08551357875078884,-0.31238861476066243,-0.19615946949326035,-0.6852437514104879,-0.6465045028230351,1.313689281302965,1.1737564610170095
1.0,-0.728135414164551,-0.269455478166089,1.6799551594437145,4.181839715883264,-0.21576411826516478,0.8391310251125945,-0.27154138212653983,2.276983631753031,-0.05355140286661822,-0.31238861476066243,-0.08958532344086473,-0.6852437514104879,-0.6465045028230351,1.3027623021106898,1.1379723939383606
1.0,-0.7361180174990634,-0.269455478166089,1.853740093972841,4.338873133440361,-0.17619155509899567,0.813812337179207,-0.27154138212653983,-1.8949612116560766,-0.05355140286661822,-0.31238861476066243,-0.08989519428050416,-0.6852437514104879,-0.6465045028230351,1.2699813645338636,1.0664042597810621
1.0,-1.2789350442459049,-0.269455478166089,1.9778721900650744,3.8408522483727996,-0.21864031959804422,0.7884936492458194,-0.27154138212653983,-1.9819673606322836,0.03915858487831982,-0.31238861476066243,-0.09026443561775538,-0.6852437514104879,-0.6465045028230351,1.2481274061493128,1.102188326859711
1.0,-0.6962050008265015,-0.269455478166089,1.9530457708466278,-0.35767672436177333,-0.21834278152912567,0.7631749613124319,-0.27154138212653983,-2.0037188978763347,-0.05355140286661822,-0.31238861476066243,-0.09064555957253434,-0.6852437514104879,-0.6465045028230351,1.2153464685724868,1.0306201927024132
1.0,-0.664274587488452,-0.269455478166089,1.9530457708466278,3.0099658926387494,-0.2197312925174123,0.7378562733790444,-0.27154138212653983,-1.925413363797749,0.08551357875078884,-0.31238861476066243,-0.09122495429958637,-0.6852437514104879,-0.6465045028230351,1.1825655309956606,0.9948361256237643
1.0,-0.6562919841539396,-0.269455478166089,1.8785665131912876,2.625754728568037,-0.21913621637957517,0.7125375854456569,-0.27154138212653983,-1.9123624414513183,-0.05355140286661822,-0.31238861476066243,-0.09201802319200302,-0.6852437514104879,-0.6465045028230351,1.144321103822697,0.9232679914664659
1.0,-0.6403267774849148,-0.269455478166089,1.903392932409734,-0.11061758433115514,-0.21169776465661105,0.6872188975122694,-0.27154138212653983,-1.9471649010418008,-0.007196408994149198,-0.31238861476066243,-0.09273556576990635,-0.6852437514104879,-0.6465045028230351,1.1224671454381463,0.9232679914664659
1.0,-1.2709524409113926,-0.269455478166089,1.9778721900650744,1.8650662096218575,-0.220623906724168,0.6619002095788818,-0.27154138212653983,-2.0385213574668177,-0.05355140286661822,-0.31238861476066243,-0.19551191652636274,-0.6852437514104879,-0.6465045028230351,1.177102041399523,1.424244930567553
1.0,-0.6083963641468654,-0.269455478166089,1.9530457708466278,1.6397802831369068,-0.220623906724168,-1.6471641299460602,-0.27154138212653983,-2.103775969198973,-0.007196408994149198,-0.31238861476066243,-0.19607501346975664,-0.6852437514104879,-0.6465045028230351,1.1224671454381463,1.2095405280956584
1.0,-0.5764659508088159,-0.269455478166089,2.1516571245942013,1.625341856359136,-0.220623906724168,-1.6724828178794477,-0.27154138212653983,-1.8949612116560766,-0.14626139061155627,-0.31238861476066243,-0.1965112347227736,-0.6852437514104879,-0.6465045028230351,1.1006131870535956,1.1737564610170095
1.0,-0.3928660741150312,-0.2280683615960554,-1.1229475703189153,-0.22334227415610983,-0.220623906724168,0.6770914223389142,-0.23469734374477397,0.19318636377288265,0.456353529730541,-0.31238861476066243,-0.19449512222221393,-0.4460006439147255,-0.4315591572132958,0.6580705297664439,0.028666314500240292
1.0,-0.3769008674460065,-0.2280683615960554,-0.5941448409660011,-0.24070226178905405,-0.20435849228995312,-1.6471641299460602,-0.23469734374477397,-0.180940076824806,0.409998535858072,-0.31238861476066243,-0.19466403426922133,-0.4460006439147255,-0.45305369177426974,0.61982610259348,-0.0786858867357064
1.0,-0.3609356607769817,-0.2280683615960554,-1.1229475703189153,-0.23503960107381427,-0.220623906724168,0.5859441457787192,-0.23469734374477397,-0.2548953034545816,0.2245785603681959,-0.31238861476066243,-0.07606354354468933,-0.4460006439147255,-0.45305369177426974,0.603435633805067,-0.1144699538143553
1.0,-0.34497045410795696,-0.2280683615960554,-0.6338671117155157,-0.24781480175747217,-0.220623906724168,0.5403705074986215,-0.23469734374477397,-0.3723536045724608,0.13186857262325788,-0.31238861476066243,-0.19500899929109325,-0.4460006439147255,-0.4315591572132958,0.5979721442089293,-0.15025402089300482
1.0,-1.239022027573343,-0.2280683615960554,-0.6338671117155157,-0.2572388862949866,-0.220623906724168,0.49986060680520156,-0.23469734374477397,-0.27229653324982295,-0.14626139061155627,-0.31238861476066243,-0.19448443212544167,-0.4460006439147255,-0.4315591572132958,0.5761181858243786,-0.15025402089300482
1.0,-0.28909223076637036,-0.21979093828204868,-0.6040754086533797,-0.38465274215681766,-0.220623906724168,0.46441444369845886,-0.23469734374477397,-0.0460805459116859,-0.14626139061155627,-0.31238861476066243,-0.08101166707603903,-0.4460006439147255,-0.4315591572132958,0.5269467794591395,-0.18603808797165372
1.0,-0.21724880075575895,-0.21979093828204868,-0.8324784654630892,-0.280157566522797,-0.22012800994263707,0.42896828059171654,-0.23469734374477397,-0.6899260483356148,-0.14626139061155627,-0.31238861476066243,-0.2067886625269546,-0.4460006439147255,-0.4315591572132958,0.4777753730939003,-0.18603808797165372
1.0,-1.2310394242388307,-0.21979093828204868,-0.8722007362126037,-0.2973583253142063,-0.220623906724168,0.3935221174849739,-0.22855667068114632,-0.3723536045724608,-0.23897137835649432,-0.31238861476066243,-0.20681451467333217,-0.4460006439147255,-0.4315591572132958,0.4176769875363858,-0.18603808797165372
1.0,-0.11347495740709808,-0.21979093828204868,-0.9144056488839631,-0.3373749006109616,-0.1986060896241942,0.3631396919649088,-0.22855667068114632,0.09312929245024484,-0.28532637222896334,-0.31238861476066243,-0.1959875335543373,-0.4242512705060198,-0.4315591572132958,0.2756262580368067,-0.5080946916794951
1.0,-0.04961413073099907,-0.21979093828204868,-0.9441973519460991,-0.3512174850431064,-0.09783986361710693,0.33275726644484405,-0.22855667068114632,0.828331251299191,-0.4243913538463704,-0.31238861476066243,-0.19611913673770917,-0.4242512705060198,-0.41006462265232185,0.23738183086384287,-0.32917435628624997
1.0,-0.11347495740709808,-0.21979093828204868,-0.9715064130863904,-0.39255040035010913,-0.13860257905895032,0.30743857851145656,-0.22241599761751868,0.8544330959920529,-0.33168136610143234,-0.31238861476066243,-0.20791401880987845,-0.4025018970973141,-0.41006462265232185,0.1991374036908791,-0.40074249044354776
1.0,-0.11347495740709808,-0.21151351496804197,-0.9888849065393032,-0.37332131806787805,-0.024447139950527625,0.2770561529913914,-0.22241599761751868,0.2627912829538476,-0.33168136610143234,-0.31238861476066243,-0.20686380553122508,-0.4025018970973141,-0.41006462265232185,0.14996599732563998,-0.47231062460084555
1.0,-0.17733578408319708,-0.21151351496804197,-0.9888849065393032,-0.37507396619683375,0.21110383127666948,0.25173746505800393,-0.21627532455389104,-0.6464229738475117,-0.3780363599739014,-0.31238861476066243,-0.19643132163548124,-0.3807525236886084,-0.3885700880913479,0.1062580805565385,-0.543878758758144
1.0,-0.28909223076637036,0.5417320066065696,-1.1229475703189153,-0.39149871287467414,-0.1919610727516796,-1.0344518819580824,0.471480058572405,-1.3642237029012163,0.5954185113479481,-0.31238861476066243,0.018337180275728223,2.8816534876172435,2.94308276885961,-0.3362845767306138,-0.758583161230038
1.0,-0.26514442076283323,0.59139654649061,-1.1229475703189153,-0.3673993430177733,-0.1971183992796014,-1.0698980450648248,0.5267461161450537,-1.3381218582083543,0.5490635174754791,-0.31238861476066243,2.0289557519115995,2.9251522344346546,2.986071837981558,-0.3636020247113022,-0.758583161230038
1.0,-0.24917921409380847,0.649338509688657,-1.1229475703189153,-0.36374375862865954,-0.02365370510007812,-1.1002804705848899,0.5820121737177025,-0.9378935729178038,0.456353529730541,-0.31238861476066243,0.013048549478663954,2.9686509812520656,3.029060907103506,-0.40730994148040306,-0.7943672283086869
1.0,-1.2310394242388307,0.707280472886704,-1.1229475703189153,-0.36198622950786774,0.33725997249814094,-1.1306628961049547,0.6495595774176066,-1.2163132496416649,0.5490635174754791,-0.31238861476066243,1.9770047777201663,3.012149728069477,3.0720499762254536,-0.47287181663405525,-0.973287563701932
1.0,-0.20926619742124658,0.7734998593987579,-1.1229475703189153,-0.36181020732466657,-0.14247057395489165,-1.1610453216250198,0.7171069811175107,-1.0248997218940104,0.456353529730541,-0.31238861476066243,0.007968396863672582,3.055648474886888,3.1150390453474013,-0.527506712595432,-1.1522078990951772
1.0,-0.19330099075222182,0.8479966692248183,-1.1229475703189153,-0.36715249014986395,-0.14941312889632483,-1.1914277471450847,0.7907950578810424,-1.3250709358619233,0.5954185113479481,-0.31238861476066243,-0.18609212409550185,3.0991472217043,3.1795226490303232,-0.5930685877490842,-1.3311282344884223
1.0,-0.1693531807486847,0.9224934790508789,-1.1229475703189153,-0.37327939011840383,0.04319318105029277,-1.22181017266515,0.8706238077082018,-1.3511727805547853,0.5490635174754791,-0.31238861476066243,0.003296299297187943,3.142645968521711,3.222511718152271,-0.6094590565374973,-1.2595601003311245
1.0,-0.1374227674106352,1.0052677121909461,-1.1229475703189153,-0.37107507677515644,0.06937653111512647,-1.2471288605985373,0.9627339036626165,-1.372924317798837,0.456353529730541,-0.31238861476066243,1.8808545975581181,3.1861447153391222,-0.6035154337010872,-0.647703483710461,-1.2595601003311245
1.0,-0.12944016407612283,1.0880419453310133,-1.1229475703189153,-0.37336934054478726,0.3934946675237497,-1.2724475485319249,1.0487033265534034,-1.372924317798837,0.456353529730541,-0.31238861476066243,-0.18739529374107217,3.2296434621565338,-0.5605263645791394,-0.6859479108834249,-1.3311282344884223
1.0,-0.1054923540725857,1.1708161784710804,-1.1229475703189153,-0.37580059375032043,2.3514935197205182,-1.2977662364653124,1.1469540955714457,-1.425128007184561,0.409998535858072,-0.31238861476066243,-0.004408279173735348,3.273142208973945,-0.5175372954571915,-0.7241923380563886,-1.4026963686457208
1.0,-0.08154454406904857,1.2618678349251544,-1.1229475703189153,-0.3950989412674819,0.7456805617670242,-1.3230849243987,1.245204864589488,-1.451229851877423,0.6881284990928861,-0.31238861476066243,-0.007327428016377068,-0.5982462577756652,-0.4745482263352436,-0.7679002548254901,-1.4384804357243697
1.0,-0.05759673406551145,1.3529194913792284,-1.1229475703189153,-0.37726192117414287,0.18273853537309964,-1.34333987474541,1.349596306671158,-1.4990832338143367,0.13186857262325788,-0.31238861476066243,-0.20605672451993162,-0.5547475109582539,-0.4315591572132958,-0.8061446819984539,-1.5100485698816675
1.0,0.2457421926459588,-0.269455478166089,2.335372626810706,0.25481259107050097,-0.21427642792057194,1.1935926561800199,-0.27154138212653983,-0.11568546509265089,0.5954185113479481,-0.31238861476066243,-0.07352621429393394,-0.6417450045930766,-0.6250099682620611,0.8984640719965018,1.2811086622529562
1.0,-1.1591959942282193,-0.269455478166089,2.5141228451835227,0.2336282678269195,-0.219037037023269,1.1632102306599548,-0.2654007090629122,0.32369558723719255,0.6417735052204171,-0.31238861476066243,-0.07364708479050654,-0.6199956311843708,-0.6250099682620611,0.8984640719965018,1.2811086622529562
1.0,0.20582917597339695,-0.269455478166089,2.9336893299752718,-0.34529219078345297,-0.21963211316110612,-1.6015904916659627,-0.2654007090629122,-0.3723536045724608,0.6417735052204171,-0.31238861476066243,-0.07366840819734846,-0.6199956311843708,-0.6035154337010872,0.8820736032080888,1.2453245951743073
1.0,0.5091681026848672,-0.269455478166089,3.172022954472359,0.08411787094031128,-0.2156649389088586,1.1024453796198246,-0.2654007090629122,-0.4506591386510466,0.6417735052204171,-0.31238861476066243,-0.07354522364264321,-0.6199956311843708,-0.6035154337010872,0.8492926656312627,1.2095405280956584
1.0,0.42934206933974345,-0.269455478166089,2.4595047229029396,-0.39260880145512667,-0.2205247273678618,1.0720629540997595,-0.2654007090629122,-0.17658976937599577,0.6417735052204171,-0.31238861476066243,-0.19455185213815288,-0.6199956311843708,-0.5820208991401132,0.811048238458299,1.2095405280956584
1.0,0.46127248267779297,-0.269455478166089,2.372612255638377,-0.15021077021269935,-0.220623906724168,1.0416805285796946,-0.2654007090629122,0.4107017362133992,0.5490635174754791,-0.31238861476066243,-0.19444989161355994,-0.5982462577756652,-0.5820208991401132,0.7618768320930598,1.1737564610170095
1.0,0.44530727600876824,-0.2611780548520823,2.516605487105367,-0.11211031511022729,-0.220623906724168,1.016361840646307,-0.2654007090629122,-0.002577471423582351,0.5954185113479481,-0.31238861476066243,-0.07276706125966999,-0.5982462577756652,-0.5605263645791394,0.6744609985548569,1.0664042597810621
1.0,0.46127248267779297,-0.2611780548520823,2.404886600622357,-0.13356263244995986,-0.2205247273678618,0.9910431527129197,-0.2654007090629122,0.210587593568124,0.50270852360301,-0.31238861476066243,-0.19444722263853578,-0.5764968843669595,-0.5605263645791394,0.5870451650166539,0.9948361256237643
1.0,0.5969767393645034,-0.2611780548520823,2.0026986092835206,-0.19022476763332813,-0.20584618263454596,0.9657244647795321,-0.2654007090629122,0.16708451908002045,0.6881284990928861,-0.31238861476066243,-0.19433406093684677,-0.5764968843669595,-0.5390318300181655,0.499629331478451,0.887483924387817
1.0,0.6688201693751147,-0.2611780548520823,1.6079585437102188,-0.37148179238614265,-0.2205247273678618,0.9404057768461446,-0.2654007090629122,0.40635142876458863,0.6881284990928861,-0.31238861476066243,-0.0708373071371525,-0.5547475109582539,-0.5175372954571915,0.4449944355170742,0.8159157902305192
1.0,0.6289071527025528,-0.2611780548520823,1.8661533035820645,-0.373367075167269,-0.22042554801155562,0.915087088912757,-0.2654007090629122,0.27584220530027875,0.6881284990928861,-0.31238861476066243,-0.194217335869567,-0.5329981375495482,-0.5175372954571915,0.3903595395556974,0.7085635889945718
1.0,0.6768027727096271,-0.2611780548520823,1.6476808144597335,-0.3838854676769641,-0.21854114024173804,0.8948321385660467,-0.2654007090629122,0.27584220530027875,-3.669240924919202,-0.31238861476066243,-0.06895150592247962,-0.5112487641408425,-0.4960427608962175,0.34665162278659595,0.636995454837274
1.0,0.7486462027202385,-0.2611780548520823,1.9108408581752685,-0.3147503877374365,-0.21923539573588136,0.8695134506326592,-0.2654007090629122,0.22363851591455472,0.6881284990928861,-0.31238861476066243,-0.0679747888337201,-0.5112487641408425,-0.4745482263352436,0.3029437060174951,0.5296432536013268
1.0,0.6847853760441395,-0.2611780548520823,1.540927211820413,-0.3894432047057972,-0.21616083569038952,0.8492585002859493,-0.2654007090629122,0.2888931276467098,0.6881284990928861,-0.31238861476066243,-0.06708038407043956,-0.4894993907321368,-0.4745482263352436,0.270162768440669,0.42229105236538006
1.0,0.6289071527025528,-0.2611780548520823,2.0970390023136187,-0.3836502408046497,-0.21854114024173804,0.8239398123525618,-0.2654007090629122,0.0757280626550035,0.6881284990928861,-0.31238861476066243,-0.1938650453630543,-0.4677500173234311,-0.45305369177426974,0.23738183086384287,0.35072291820808166
1.0,-0.7361180174990634,-0.269455478166089,2.0026986092835206,3.675664231403989,-0.2136813517827348,1.2796761951535371,-0.2654007090629122,-1.899311519104887,0.6881284990928861,-0.31238861476066243,-0.20642916010920642,-0.8374893652714276,-0.8399553138718003,1.4120320940334434,1.4958130647248509
1.0,-0.728135414164551,-0.269455478166089,1.7966393297704135,0.0019251759673223413,-0.21675591182822665,1.2594212448068272,-0.2654007090629122,-1.9080121340025076,0.6881284990928861,-0.31238861476066243,-0.049273948083227374,-0.8374893652714276,-0.8614498484327742,1.4065686044373058,1.4958130647248509
1.0,-0.7201528108300386,-0.269455478166089,1.377072844978665,-0.019616615855208238,-0.20981335688679348,1.2391662944601172,-0.2654007090629122,-1.9210630563489388,0.6881284990928861,-0.31238861476066243,-0.050048674870690785,-0.8592387386801333,-0.8614498484327742,1.3901781356488927,1.4600289976462013
1.0,-1.2789350442459049,-0.269455478166089,1.3845207707441987,0.0082766883746535,-0.16349659749180356,1.2239750817000845,-0.2654007090629122,-1.9732667457346629,0.6417735052204171,-0.31238861476066243,-0.19173862469261338,-0.8592387386801333,-0.8614498484327742,1.3792511564566172,1.424244930567553
1.0,-0.6962050008265015,-0.269455478166089,1.4118298318844904,-0.018899201293361048,-0.21665673247192047,1.2037201313533745,-0.2654007090629122,-2.0820244319549213,0.6417735052204171,-0.31238861476066243,-0.18112175437339234,-0.8592387386801333,-0.8614498484327742,1.3464702188797912,1.3526767964102546
1.0,-0.664274587488452,-0.269455478166089,1.3696249192131311,-0.015372698878413566,-0.21735098796606378,1.1885289185933423,-0.2654007090629122,-1.986317668081094,0.6417735052204171,-0.31238861476066243,-0.18252854555460785,-0.8592387386801333,-0.8614498484327742,1.3355432396875158,1.3168927293316057
1.0,-0.6483093808194272,-0.269455478166089,1.473895879930607,3.6914160080842793,-0.21090432980616156,1.1733377058333094,-0.2654007090629122,1.5852847473921885,0.6881284990928861,-0.31238861476066243,-0.2054777556931494,-0.880988112088839,-0.8829443829937482,1.3246162604952405,1.3168927293316057
1.0,-0.6562919841539396,-0.269455478166089,1.4192777576500242,-0.03333007628204146,-0.21427642792057194,-1.5813355413192527,-0.2654007090629122,1.433023986683827,0.6417735052204171,-0.31238861476066243,-0.2078019786455666,-0.880988112088839,-0.8829443829937482,1.3082257917068274,1.3168927293316057
1.0,-0.664274587488452,-0.269455478166089,1.600510617944685,2.774911633458725,-0.21913621637957517,-1.5965267540792851,-0.2654007090629122,1.3982215270933445,0.6417735052204171,-0.31238861476066243,-0.1860569163398641,-0.880988112088839,-0.8829443829937482,1.2754448541300014,1.2811086622529562
1.0,-0.6323441741504024,-0.269455478166089,1.920771425862647,2.4843641802858234,-0.2180452434602071,-1.6167817044259953,-0.2654007090629122,1.4286736792350168,0.5954185113479481,-0.31238861476066243,-0.18704132802683154,-0.880988112088839,-0.8829443829937482,1.2535908957454507,1.2811086622529562
1.0,-0.6163789674813778,-0.2611780548520823,1.8661533035820645,2.536842777381143,-0.21457396598949052,1.0973816420331468,-0.2654007090629122,1.4634761388254995,0.50270852360301,-0.31238861476066243,-0.18785735294379102,-0.880988112088839,-0.8829443829937482,1.3573971980720665,2.3904147416910764
1.0,-0.5844485541433282,-0.269455478166089,1.6749898756000248,-0.10898268507962831,-0.21626001504669573,1.077126691686437,-0.2654007090629122,1.454775523927879,0.50270852360301,-0.31238861476066243,-0.18849626013521145,-0.880988112088839,-0.8829443829937482,1.3464702188797912,2.3188466075337786
1.0,-0.5525181408052787,-0.2611780548520823,1.6774725175218694,-0.21530487801298245,-0.220623906724168,1.056871741339727,-0.2654007090629122,1.0893496982278112,0.50270852360301,-0.31238861476066243,-0.18911165763173823,-0.880988112088839,-0.8829443829937482,1.3300797500913781,2.3904147416910764
1.0,-1.3348132675874915,-0.2611780548520823,1.6079585437102188,1.2761739674618544,-0.21239202015075437,1.0315530534063395,-0.2654007090629122,1.0153944715980348,0.50270852360301,-0.31238861476066243,-0.20620627230133823,-0.880988112088839,-0.8829443829937482,1.3191527708991029,2.1757103392191817
1.0,-1.2549872342423678,-0.2611780548520823,1.6576113821471126,-0.23413093814837294,-0.220623906724168,1.0112981030596295,-0.2654007090629122,0.9414392449682593,0.50270852360301,-0.31238861476066243,-0.20625641495977073,-0.880988112088839,-0.8829443829937482,1.2972988125145521,2.104142205061884
1.0,0.07012491928668656,-0.269455478166089,0.5081481723330313,-0.01642209483764328,-0.220623906724168,-1.6724828178794477,-0.27154138212653983,-0.07218239060454772,0.50270852360301,-0.2958063251826701,-0.20303988835207074,-0.3155044034624914,-0.3240864844084262,0.4012865187479728,0.24337071697213494
1.0,-1.1991090109007811,-0.269455478166089,0.5031828884893418,-0.039672408193403445,-0.220623906724168,0.565689195432009,-0.27154138212653983,-0.07218239060454772,0.50270852360301,-0.2958063251826701,-0.20314654797630727,-0.3155044034624914,-0.3240864844084262,0.40675000834411046,0.27915478405078387
1.0,0.16591615930083506,-0.269455478166089,0.5280093077077886,-0.06605510595504802,-0.220623906724168,0.525179294738589,-0.27154138212653983,-0.22009284386409894,0.6417735052204171,-0.31238861476066243,-0.2075547577356165,-0.2937550300537857,-0.3240864844084262,0.3848960499595597,0.13601851573618762
1.0,0.1579335559663227,-0.269455478166089,0.5230440238640992,-0.053076186985711406,-0.220623906724168,0.4897331316318464,-0.27154138212653983,-0.15048792468313357,0.50270852360301,-0.24605945644869304,-0.20335934194778094,-0.2937550300537857,-0.3240864844084262,0.37396907076728436,0.10023444865753872
1.0,0.14196834929729793,-0.269455478166089,0.5528357269262353,-0.0733616600865297,-0.220623906724168,0.44922323093842653,-0.27154138212653983,-0.0460805459116859,0.5490635174754791,-0.2958063251826701,-0.20757609533913407,-0.2937550300537857,-0.3240864844084262,0.37396907076728436,0.10023444865753872
1.0,0.1260031426282732,-0.269455478166089,0.5751795042228371,-0.08481509173132455,-0.220623906724168,0.41377706783168383,-0.27154138212653983,-0.06348177570692724,0.5954185113479481,-0.27922403560467773,-0.20357602580838555,-0.2937550300537857,-0.3240864844084262,0.37396907076728436,0.2075866498934854
1.0,0.10205533262473607,-0.269455478166089,0.6670372553310899,-0.3682963374957081,-0.220623906724168,0.38339464231161907,-0.27154138212653983,-0.024329008667633933,0.456353529730541,-0.31238861476066243,-0.20751935122651946,-0.2937550300537857,-0.3240864844084262,0.3685055811711467,0.24337071697213494
1.0,0.10205533262473607,-0.269455478166089,0.6720025391747794,-0.3578464428000085,-0.220623906724168,0.3479484792048764,-0.27154138212653983,-0.520264057832012,0.5490635174754791,-0.2294771668707007,-0.20760904582334183,-0.2937550300537857,-0.30259194984745225,0.37396907076728436,0.24337071697213494
1.0,0.1260031426282732,-0.269455478166089,0.4833217531145847,-0.17720009311120125,-0.220623906724168,0.31756605368481133,-0.27154138212653983,-0.6768751259891838,0.6417735052204171,-0.2294771668707007,-0.2076104654909079,-0.27200565664508003,-0.30259194984745225,0.3302611539981829,0.06445038157888983
1.0,0.18188136596985982,-0.269455478166089,0.42622098891215726,-0.18944359559964508,-0.220623906724168,0.28718362816474624,-0.27154138212653983,-0.6551235887451321,0.5490635174754791,-0.19631258771471596,-0.20401118231072796,-0.27200565664508003,-0.30259194984745225,0.34665162278659595,0.24337071697213494
1.0,0.22977698597693408,-0.269455478166089,0.41380777930293394,-0.21225547077535778,-0.220623906724168,0.2568012026446815,-0.27154138212653983,-0.6812254334379944,0.5954185113479481,-0.19631258771471596,-0.20763968224941698,-0.27200565664508003,-0.30259194984745225,0.3247976644020452,0.13601851573618762
1.0,-1.175161200897244,-0.269455478166089,0.28222775744516654,-0.21957973422270113,-0.220623906724168,0.2264187771246164,-0.27154138212653983,-0.6203211291546494,0.5490635174754791,-0.08023656066876951,-0.20765069886972945,-0.27200565664508003,-0.2810974152864783,0.28655323722908205,0.028666314500240292
1.0,0.2457421926459588,-0.269455478166089,0.1134081067597292,-0.24799264950933672,-0.220623906724168,0.1960363516045513,-0.27154138212653983,-0.6855757408868046,0.2245785603681959,-0.31238861476066243,-0.20766045198590813,-0.25025628323637433,-0.2810974152864783,0.25377229965225595,-0.0786858867357064
1.0,-1.175161200897244,-0.269455478166089,0.09106432946312724,-0.25434464386470257,-0.220623906724168,0.1656539260844862,-0.27154138212653983,-0.6333720515010806,0.5490635174754791,-0.2626417460266854,-0.2044128488551875,-0.25025628323637433,-0.25960288072550436,0.24830881005611824,-0.1144699538143553
1.0,0.2217943826424217,-0.269455478166089,0.06375526832283582,-0.2729008425543186,-0.220623906724168,-1.6876740306394804,-0.27154138212653983,-0.8595880388392177,0.31728854811313395,-0.27922403560467773,-0.2045217231608271,-0.22850690982766875,-0.25960288072550436,0.1991374036908791,-0.15025402089300482
1.0,0.6688201693751147,-0.06251989531592098,-1.1229475703189153,-0.34619487857674996,-0.14266893266750402,-0.6546715629572695,-0.032055132645061726,-0.5942192844617876,-0.28532637222896334,-0.14656571898073892,-0.1897657410694396,0.4892224126596185,0.4282222252256612,-0.855316088363693,-0.5080946916794951
1.0,0.6608375660406024,-0.06251989531592098,-1.1229475703189153,-0.34773808210293755,-0.15744665675712607,-0.6850539884773343,-0.032055132645061726,-0.5942192844617876,-0.33168136610143234,-0.12998342940274657,-0.20782761784180928,0.5109717860683243,0.4712112943476089,-0.9044874947289319,-0.6512309599940906
1.0,0.6608375660406024,-0.06251989531592098,-1.1229475703189153,-0.3918639429833596,-0.19206025210798577,-0.7103726764107219,-0.032055132645061726,-0.47676098334390843,-3.5301759433017947,-0.11340113982475421,-0.1942206011049689,0.5544705328857357,0.5142003634695568,-0.9481954114980333,-0.758583161230038
1.0,0.6608375660406024,-0.06251989531592098,-0.7778603431825064,-0.33474247525644807,-0.1783735009377318,-0.740755101930787,-0.032055132645061726,-0.2548953034545816,-0.4243913538463704,-0.09681885024676189,-0.20668860435690015,0.5979692797031468,0.5571894325915047,-0.9700493698825841,-0.8301512953873358
1.0,0.6847853760441395,-0.06251989531592098,-0.795238836635419,-0.34384352754498315,-0.18174559905214221,-0.7660737898641745,-0.032055132645061726,-0.43760821630461555,-0.3780363599739014,-0.09681885024676189,-0.07743387766280896,0.6414680265205582,0.5786839671524785,-0.986439838670997,-0.9375034966232831
1.0,0.7246983927167013,-0.06251989531592098,-0.8374437493067785,-0.35705979055773984,-0.07572286716082695,-0.791392477797562,-0.032055132645061726,-0.6507732812963218,-0.23897137835649432,-0.06365427109077715,-0.19533418834377025,0.6632173999292641,0.6216730362744264,-1.00283030745941,-1.009071630780581
1.0,0.8763678560724365,-0.06251989531592098,-0.8076520462446424,-0.39310841317753437,-0.12858546407202529,-0.8167111657309496,-0.032055132645061726,-0.7638812749653904,-0.4243913538463704,-0.03048969193479245,-0.0845654783040787,0.7067161467466753,0.6646621053963743,-1.0246842658439608,-1.0806397649378794
1.0,0.9162808727449984,-0.06251989531592098,-0.8473743169941571,-0.39317813109222055,-0.1868037462237578,-0.8420298536643371,-0.032055132645061726,-0.611620514257029,-0.09990639673908724,0.002674887221192244,-0.08800284839835182,0.7502148935640868,0.7076511745183219,-1.057465203420787,-1.1522078990951772
1.0,0.9242634760795108,-0.06251989531592098,-0.8299958235412445,-0.35427346310997126,-0.20316834001427886,-0.8673485415977246,-0.032055132645061726,-0.5246143652808223,-0.47074634771883944,0.002674887221192244,-0.09138016655458146,0.793713640381498,0.75064024364027,-1.0793191618053377,-1.2237760332524756
1.0,0.9322460794140232,-0.06251989531592098,-0.8448916750723124,-0.39339750965552833,-0.19979624189986847,-1.804139995133063,-0.032055132645061726,-0.5333149801784427,-3.576530937174264,0.01925717679918461,-0.094711714628482,0.8372123871989092,0.7936293127622177,-1.1011731201898884,-1.2953441674097734
1.0,0.9322460794140232,-0.06251989531592098,-0.8399263912286231,-0.39133388771578925,-0.19463891537194666,-1.8243949454797728,-0.032055132645061726,-0.6072702068082187,-0.5634563354637775,0.01925717679918461,-0.20792269297870694,0.8807111340163208,0.8366183818841658,-1.1394175473628523,-1.4384804357243697
1.0,0.9322460794140232,-0.06251989531592098,-0.7902735527917297,-0.39235990559209905,-0.19910198640572516,-0.9331771302245322,-0.02591445958143408,-0.5768180546665462,-0.5171013415913084,0.01925717679918461,-0.19734899475016918,0.924209880833732,0.8796074510061135,-1.177661974535816,-1.5816167040389655
1.0,0.9162808727449984,-0.06251989531592098,-0.8200652558538658,-0.3744168795996336,-0.06312708890994105,-0.9584958181579197,-0.02591445958143408,-0.7334291228237183,-0.4243913538463704,0.01925717679918461,-0.10446243156898669,0.9677086276511436,0.9225965201280611,-1.2268333809010552,-1.7247529723535617
1.0,0.3814464493326692,-0.269455478166089,-1.1229475703189153,-0.2783775424035683,-0.220623906724168,-0.7356913643441094,-0.2654007090629122,-1.0379506442404414,0.6881284990928861,-0.24605945644869304,-0.19700979357861537,2.3596685258083068,2.427213939396236,-0.19423384723103404,0.13601851573618762
1.0,0.4053942593362063,-0.269455478166089,-1.1229475703189153,-0.38618558772930756,-0.220623906724168,-0.7812650026242071,-0.2654007090629122,-0.9248426505713727,0.5954185113479481,-0.2294771668707007,-0.1971728707919263,2.403167272625718,2.4916975430791575,-0.2324782744039978,0.1718025828148365
1.0,0.43732467267425584,-0.269455478166089,-1.1229475703189153,-0.2901219086662678,-0.2205247273678618,-0.8217749033176271,-0.2654007090629122,-0.981396647405907,0.5954185113479481,-0.2294771668707007,-0.19734314571979708,2.44666601944313,2.5346866122011056,-0.2761861911730993,0.06445038157888983
1.0,0.4532898793432806,-0.269455478166089,-1.0683294480383323,-0.23262757824307215,-0.21963211316110612,-0.862284804011047,-0.2654007090629122,-0.5333149801784427,0.50270852360301,-0.24605945644869304,-0.20792699457143204,2.490164766260541,2.599170215884027,-0.32535759753833843,-0.0786858867357064
1.0,0.4772376893468177,-0.2611780548520823,-1.0559162384291092,-0.2586771144714848,-0.21854114024173804,-1.814267470306418,-0.2654007090629122,-0.34190145243078834,0.31728854811313395,-0.24605945644869304,-0.19770269072757224,2.5554128864866583,2.663653819566949,-3.45047364652909,-0.2576062221289515
1.0,0.5091681026848672,-0.2611780548520823,-1.0832252995694005,-0.38180819855926607,-0.22002883058633088,-0.9433046053978872,-0.2654007090629122,0.14968328928477911,0.409998535858072,-0.2626417460266854,-0.19788984550280322,2.5989116333040694,2.706642888688897,-3.45047364652909,-0.43652655752219666
1.0,0.525133309353892,-0.2611780548520823,-1.0732947318820218,-0.22534083026530902,-0.21992965123002467,-0.9787507685046297,-0.2654007090629122,0.2714918978514685,0.5490635174754791,-0.2626417460266854,-0.20802148764462763,2.6641597535301864,2.7711264923718186,-3.45047364652909,-0.5796628258367928
1.0,0.5570637226919415,-0.2611780548520823,-1.0857079414912452,-0.2360654494137014,-0.21953293380479993,-1.0192606691980497,-0.2654007090629122,-0.033029623565254795,0.50270852360301,-0.27922403560467773,-0.19828025408346409,2.707658500347598,2.8356100960547406,-3.45047364652909,-0.7227990941513891
1.0,0.6129419460335281,-0.2611780548520823,-1.0534335965072645,-0.3012295540251069,-0.22042554801155562,-1.0496430947181148,-0.2654007090629122,-0.2983983779426852,0.50270852360301,-0.27922403560467773,-0.1984893711159417,2.751157247165009,2.8785991651766882,-3.45047364652909,-0.9017194295446342
1.0,0.6847853760441395,-0.2611780548520823,-0.9441973519460991,-0.31465191613318705,-0.21953293380479993,-1.0850892578248574,-0.2654007090629122,-0.29404807049387455,0.50270852360301,-0.27922403560467773,-0.19871068309281162,2.816405367391126,2.94308276885961,-3.45047364652909,-1.0448556978592305
1.0,0.7566288060547509,-0.2611780548520823,-0.8870965877436718,-0.3959677660033337,-0.22032636865524943,-1.1154716833449223,-0.2654007090629122,-0.6725248185403735,0.2245785603681959,-0.27922403560467773,-0.20712018329697615,2.8599041142085375,2.986071837981558,-3.45047364652909,-1.187991966173826
1.0,0.8364548393998746,-0.2611780548520823,-0.996332832304837,-0.3865460443064673,-0.220623906724168,-1.1458541088649874,-0.2654007090629122,-0.4593597535486671,0.50270852360301,-0.2958063251826701,-0.19918208370811502,2.9251522344346546,3.05055544166448,-3.45047364652909,-1.3311282344884223
1.0,0.908298269410486,-0.2611780548520823,-1.0534335965072645,-0.31102481093250267,-0.2179460641039009,-1.1762365343850525,-0.2654007090629122,0.7804778693622773,0.08551357875078884,-0.31238861476066243,-0.2070901289346031,2.9904003546607716,3.1150390453474013,-3.45047364652909,-1.4742645028030186
1.0,-1.111300374221145,-0.2611780548520823,-1.0906732253349345,-0.3925633503711308,-0.14564431335668968,-1.20155522231844,-0.2654007090629122,-0.019978701218823693,0.17822356649572688,-0.31238861476066243,-0.20794907040208396,3.055648474886888,3.1580281144693494,-3.45047364652909,-1.6174007711176148
1.0,1.1477763694458574,-0.2611780548520823,-1.0832252995694005,-0.344354503185831,-0.1791669357881813,-1.2268739102518276,-0.2654007090629122,0.4150520436622095,0.363643541985603,-0.31238861476066243,-0.19989217303129664,3.120896595113005,3.222511718152271,-3.45047364652909,-1.7247529723535617
1.0,-0.6323441741504024,-0.269455478166089,-0.12492551773735885,0.01927149108250793,0.07691416219439677,0.8695134506326592,-0.27154138212653983,1.5722338250457577,0.08551357875078884,-0.31238861476066243,-0.20752649215437666,-0.5329981375495482,-0.5390318300181655,0.603435633805067,0.7443476560732208
1.0,-1.2709524409113926,-0.269455478166089,-0.10258174044075688,-0.35444612847052503,-0.220623906724168,0.8391310251125945,-0.27154138212653983,1.5243804431088444,0.2245785603681959,-0.31238861476066243,-0.20285100158240918,-0.5329981375495482,-0.5390318300181655,0.5651912066321032,0.7443476560732208
1.0,-0.6083963641468654,-0.269455478166089,0.019067713729631876,-0.0029288247887441807,-0.21844196088543186,0.813812337179207,-0.27154138212653983,1.7331952006517397,0.363643541985603,-0.31238861476066243,-0.2075148508803351,-0.5112487641408425,-0.5175372954571915,0.5269467794591395,0.636995454837274
1.0,-0.6083963641468654,-0.269455478166089,0.02651563949516572,-0.39291298369298416,-0.21963211316110612,0.7884936492458194,-0.27154138212653983,1.6331381293291027,0.17822356649572688,-0.31238861476066243,-0.15566315404179504,-0.4894993907321368,-0.5175372954571915,0.4340674563247988,0.45807511944402896
1.0,-0.5924311574778406,-0.269455478166089,0.0016892202767191343,-0.038997762084529,-0.21616083569038952,0.7581112237257543,-0.27154138212653983,1.576584132494568,0.2245785603681959,-0.31238861476066243,-0.2027475788002232,-0.4894993907321368,-0.4960427608962175,0.4668483939016249,0.42229105236538006
1.0,-0.5684833474743035,-0.269455478166089,0.05382470063545714,-0.030677423040848827,-0.21844196088543186,0.7327925357923668,-0.27154138212653983,1.6026859771874302,-3.483820949429326,-0.31238861476066243,-0.15484406264289288,-0.4677500173234311,-0.4745482263352436,0.46138490430548723,0.42229105236538006
1.0,-0.5605007441397911,-0.269455478166089,0.14816509366555447,-0.3598844075998547,-0.21983047187371849,0.7074738478589793,-0.27154138212653983,1.1415533876135349,0.31728854811313395,-0.31238861476066243,-0.1546021796829911,-0.4460006439147255,-0.4745482263352436,0.4286039667286612,0.35072291820808166
1.0,-1.215074217569806,-0.269455478166089,0.15561301943108855,-0.39275307842919477,-0.20416013357734075,0.6770914223389142,-0.27154138212653983,1.0501969311885175,0.50270852360301,-0.31238861476066243,-0.20797919574783533,-0.4460006439147255,-0.45305369177426974,0.3903595395556974,0.27915478405078387
1.0,-1.3348132675874915,-0.269455478166089,0.07120319408836988,-0.37568714569049794,-0.2189378576669628,0.6517727344055266,-0.27154138212653983,1.0110441641492247,0.13186857262325788,-0.31238861476066243,-0.15437689263693627,-0.4242512705060198,-0.45305369177426974,0.3575786019788713,0.2075866498934854
1.0,-1.2470046309078553,-0.269455478166089,0.006654504120408363,-0.37144570618019845,-0.21834278152912567,-1.6522278675327378,-0.27154138212653983,1.106750928023052,0.409998535858072,-0.31238861476066243,-0.20266425851077233,-0.4242512705060198,-0.4315591572132958,-3.45047364652909,0.13601851573618762
1.0,-0.5525181408052787,-0.269455478166089,-0.07030739545677622,-0.3954598779339125,-0.21784688474759473,0.5960716209520741,-0.27154138212653983,1.498278598415982,-0.007196408994149198,-0.31238861476066243,-0.15435106888391,-0.4025018970973141,-0.41006462265232185,-3.45047364652909,0.06445038157888983
1.0,0.7965418227273128,-0.25290063153807557,-1.1229475703189153,-0.020567151740512636,-0.2205247273678618,-0.04195931496929155,-0.25926003599928454,-0.23749407365934028,0.50270852360301,0.05242175595516927,-0.1772462464748881,0.4022249190247959,0.32074955242079156,0.3575786019788713,0.1718025828148365
1.0,0.9402286827485355,-0.25290063153807557,-1.1229475703189153,-0.39680297976000883,-0.2205247273678618,-0.06727800290267907,-0.25926003599928454,-0.05043085336049614,0.50270852360301,0.13533320384513103,-0.20501091221073298,0.4674730392509129,0.38523315610371334,0.3357246435943206,0.1718025828148365
1.0,-1.3188480609184667,-0.25290063153807557,-1.1229475703189153,-0.3901408486061348,-0.21992965123002467,-0.0976604284227438,-0.2531193629356569,0.13663236693834802,0.50270852360301,0.4006498370930087,-0.2039254627830905,0.5327211594770299,0.44971675978663506,0.3029437060174951,0.13601851573618762
1.0,1.2515502127945182,-0.25290063153807557,0.3045715347417685,-0.017067915950707183,-0.21983047187371849,-0.12297911635613133,-0.2531193629356569,-0.3070989928403057,0.50270852360301,0.5830550224509246,-0.20446459573796966,0.6197186531118527,0.5356948980305308,0.25377229965225595,0.10023444865753872
1.0,1.4431326928228152,-0.25290063153807557,0.36167229894419595,-0.0863906579827501,-0.1360239157949894,-0.14829780428951886,-0.2531193629356569,-0.13743700233670286,0.50270852360301,0.699131049496871,-0.20498239108933125,0.6849667733379696,0.6216730362744264,0.20460089328701678,0.06445038157888983
1.0,1.7943672395413597,-0.25290063153807557,0.11837339060341844,-0.15476695107839,-0.20237490516382936,-0.17361649222290637,-0.2531193629356569,0.18883605632407202,0.5490635174754791,1.1634351576806568,-0.17992503140192367,0.7719642669727924,0.7076511745183219,0.16089297651791534,0.028666314500240292
1.0,2.0657757529147807,-0.25290063153807557,0.5031828884893418,-0.12629299891543705,-0.220623906724168,-0.19893518015629388,-0.2531193629356569,-0.17658976937599577,0.5490635174754791,1.7769798720663736,-0.18040106013349239,0.8589617606076152,0.7936293127622177,0.07894063257585009,-0.0071177525784086055
1.0,2.1376191829253917,-0.25290063153807557,0.41629042122477855,-0.10597896186451698,-0.2205247273678618,-0.22425386808968142,-0.2531193629356569,-0.5420155950760636,0.5490635174754791,1.8930558991123203,-0.18085445936405842,0.9459592542424375,0.8796074510061135,-0.008475200962352826,-0.0071177525784086055
1.0,2.5766623663235726,-0.25290063153807557,0.47587382734905065,-0.3540435290062122,-0.22002883058633088,-0.24957255602306894,-0.2531193629356569,-0.4463088312022364,0.5490635174754791,2.058878794892244,-0.18128285824878648,1.0329567478772603,0.9655855892500093,-0.11774499288510648,-0.0786858867357064
1.0,3.1753576164120005,-0.25290063153807557,0.4560126919742933,-0.03930810119488297,-0.22012800994263707,-0.2748912439564565,-0.2531193629356569,-0.14613761723432334,0.5490635174754791,3.0869807487277696,-0.18168584508408245,-0.8374893652714276,1.073058262054879,-0.2106243160194471,-0.0786858867357064
1.0,3.861861503180065,-0.25290063153807557,0.09106432946312724,-0.130432542130367,-0.2205247273678618,-0.30020993188984396,-0.24697868987202923,-0.17223946192718553,0.5490635174754791,4.380399335811172,-0.20543573353319464,-0.7287424982278993,-0.7539771756279047,-0.28164968076923697,-0.1144699538143553
1.0,4.189148239895072,-0.25290063153807557,0.2425054866956518,-0.22721747871085526,-0.2147723247021029,-0.33059235740990905,-0.24697868987202923,-0.5681174397689254,0.5490635174754791,4.960779471040905,-0.2054157730072161,-0.6417450045930766,-0.667999037384009,-0.35267504551902684,-0.1144699538143553
1.0,4.237043859902146,-0.25290063153807557,0.46594325966167194,-0.3938393087095207,-0.21992965123002467,-0.3559110453432966,-0.24697868987202923,0.22363851591455472,0.5954185113479481,5.4085012896467,-0.1827633585700308,1.4244454692339628,1.373981745908514,-0.4018464518842654,-0.0786858867357064
1.0,4.077391793211899,-0.25290063153807557,0.23505756093011795,-0.2229042770983905,-0.2205247273678618,-1.753502619266288,-0.24697868987202923,-0.09828423529740954,0.5954185113479481,5.839640818674501,-0.18311853100170253,1.5114429628687855,1.4814544187133836,-0.39091947269199,-0.1144699538143553
1.0,3.821948486507503,-0.25290063153807557,0.20774849978982654,-0.25478078778787755,0.04438333332596703,-0.4166758963834268,-0.24697868987202923,-0.5724677472177361,0.5954185113479481,6.1049574519223775,-0.20557910576068897,1.6201898299123139,1.567432556957279,-0.3963829622881277,-0.15025402089300482
1.0,-0.19330099075222182,0.09475114765020673,0.6918636745495367,-0.35015088629676405,-0.1337427905999471,0.8695134506326592,0.02935159799121471,1.0284453939444664,0.409998535858072,-0.31238861476066243,0.1357132219212268,-0.4677500173234311,-0.4745482263352436,0.6307530817857554,1.102188326859711
1.0,-0.17733578408319708,0.11130599427822017,0.6720025391747794,0.12355592306024711,-0.19880444833680658,0.8290035499392393,0.04777361718209764,1.0980503131254318,0.5954185113479481,-0.31238861476066243,-0.17610967481819256,-0.4460006439147255,-0.4745482263352436,0.5597277170359656,0.7443476560732208
1.0,-0.16137057741417232,0.13613826422024033,0.748964438751964,0.08200455428168361,-0.22042554801155562,0.7834299116591419,0.06005496330935293,1.0023435492516042,0.50270852360301,-0.31238861476066243,-0.2043844697005424,-0.4460006439147255,-0.45305369177426974,0.5378737586514148,0.7443476560732208
1.0,-0.12944016407612283,0.15269311084825377,0.756412364517498,0.21949571997949008,-0.21635919440300191,0.7429200109657216,0.07847698250023585,1.2807632259754655,0.6881284990928861,-0.31238861476066243,2.6126576935722974,-0.4242512705060198,-0.45305369177426974,0.5050928210745887,0.6727795219159229
1.0,-0.11347495740709808,0.17752538079027394,0.7415165129864298,0.23438832307661045,-0.2138797104953472,0.7024101102723017,0.10303967475474643,1.0066938567004144,0.6881284990928861,-0.31238861476066243,2.585820028167049,-0.4242512705060198,-0.4315591572132958,0.46138490430548723,0.6012113877586251
1.0,-0.08952714740356095,0.20235765073229411,0.6943463164713813,-0.07644878970842288,-0.220623906724168,0.6568364719922043,0.12146169394562936,1.1720055397552074,0.6881284990928861,-0.31238861476066243,2.5588424687198437,-0.4025018970973141,-0.4315591572132958,0.45045792511321187,0.6012113877586251
1.0,-0.08154454406904857,0.23546734398832098,0.6645546134092453,-0.09813834278404644,-0.220623906724168,-1.6623553427060929,0.14602438620013994,0.9936429343539837,0.6881284990928861,-0.31238861476066243,0.06593366492855117,-0.4025018970973141,-0.41006462265232185,0.3958230291518351,0.42229105236538006
1.0,-0.0735619407345362,0.2685770372443479,0.659589329565556,-0.1728789154748318,-0.220623906724168,0.5707529330186866,0.17672775151827816,1.0110441641492247,0.6881284990928861,-0.31238861476066243,0.06350188796133081,-0.3807525236886084,-0.41006462265232185,0.37396907076728436,0.49385918652267785
1.0,-0.05759673406551145,0.30996415381438147,0.6372455522689539,-0.3802077646592142,-0.21497068341471526,0.5302430323252667,0.21357178990004402,1.0458466237397073,0.6881284990928861,-0.31238861476066243,0.060460605117982714,-0.3807525236886084,-0.3885700880913479,0.363042091575009,0.6012113877586251
1.0,-0.04163152739648669,0.3513512703844151,0.6049712072849732,-0.3839264555434691,-0.22002883058633088,0.4897331316318464,0.25041582828180986,1.0066938567004144,0.6881284990928861,-0.31238861476066243,2.4455723754121688,-0.3590031502799027,-0.3885700880913479,0.34118813319045826,0.6012113877586251
1.0,-1.2070916142352934,0.4010158102684554,0.5751795042228371,-0.2913320769402983,-0.220623906724168,0.4441594933517489,0.299541212790831,0.7587263321182257,0.6881284990928861,-0.31238861476066243,2.4146391962257074,-0.3590031502799027,-0.36707555353037397,0.34665162278659595,0.6727795219159229
1.0,0.030211902614124684,0.45895777346650246,0.600005923441284,-0.3884217686240488,-0.22042554801155562,0.40364959265832906,0.3425259242362245,0.4281029660086406,0.6881284990928861,-0.31238861476066243,2.3826071091630774,-0.3372537768711971,-0.34558101896940013,0.3685055811711467,0.9590520585451154
1.0,0.06214231595217419,0.5168997366645495,0.6124191330505073,-0.3172754897012157,-0.2205247273678618,0.3631396919649088,0.39779198180887326,0.5107588075360366,0.6881284990928861,-0.31238861476066243,-0.18226408988040602,-0.3372537768711971,-0.34558101896940013,0.3302611539981829,0.887483924387817
1.0,0.08609012595571132,0.5831191231766033,0.644693478034488,-0.3124436521863889,-0.2205247273678618,0.3226297912714889,0.45305803938152206,0.5368606522288989,0.6417735052204171,-0.31238861476066243,-0.18279723183815647,-0.3155044034624914,-0.3240864844084262,0.29201672682521973,0.7801317231518703
1.0,0.11802053929376081,0.649338509688657,0.6769678230184686,-0.2953869675409102,-0.21705344989714523,0.282119890578069,0.5083240969541708,0.5847140341658122,0.6417735052204171,-0.31238861476066243,2.2804682459304755,-0.3155044034624914,-0.3240864844084262,0.24830881005611824,0.7085635889945718
1.0,-0.24119661075929608,-0.2611780548520823,1.8611880197383748,-0.31036266294842924,-0.220623906724168,1.3657597341270544,-0.2654007090629122,1.08064908333019,0.17822356649572688,-0.31238861476066243,-0.10547686922497586,-0.6417450045930766,-0.6465045028230351,0.8492926656312627,0.9590520585451154
1.0,-1.2310394242388307,-0.2611780548520823,1.8686359455039092,-0.3123414913142851,-0.21923539573588136,1.3353773086069898,-0.2654007090629122,0.8587834034408631,0.50270852360301,-0.31238861476066243,-0.10489229271130779,-0.6417450045930766,-0.6465045028230351,0.8165117280544366,0.8159157902305192
1.0,-0.2332140074247837,-0.2611780548520823,1.6029932598665297,0.08669896814680822,-0.2205247273678618,1.3049948830869247,-0.2654007090629122,0.5020581926384162,0.50270852360301,-0.31238861476066243,-0.19758561074340097,-0.6417450045930766,-0.6465045028230351,0.8001212592660236,0.7801317231518703
1.0,-0.19330099075222182,-0.2611780548520823,1.5235487183675003,0.10017420727790077,-0.20505274778409643,1.2746124575668596,-0.2654007090629122,0.40200112131577836,0.50270852360301,-0.31238861476066243,-0.10371094473957934,-0.6199956311843708,-0.6250099682620611,0.7837307904776105,0.7443476560732208
1.0,-0.1693531807486847,-0.2611780548520823,1.5558230633514811,0.03836475251066978,1.9617186494371985,1.2442300320467947,-0.2654007090629122,0.5586121894729504,0.456353529730541,-0.31238861476066243,-0.10303985368443681,-0.6199956311843708,-0.6250099682620611,0.7564133424969222,0.636995454837274
1.0,-0.12944016407612283,-0.2611780548520823,1.5880974083354615,-0.021299376481312103,0.0024304656084493934,1.2138476065267296,-0.2654007090629122,0.3584980468276752,0.456353529730541,-0.31238861476066243,-0.10234643125848049,-0.6199956311843708,-0.6035154337010872,0.7454863633046468,0.6012113877586251
1.0,-0.1054923540725857,-0.2611780548520823,1.600510617944685,-0.3360393164486686,-0.2205247273678618,1.1834651810066645,-0.2654007090629122,0.2845428201978996,0.50270852360301,-0.31238861476066243,-0.1016633156190536,-0.5982462577756652,-0.6035154337010872,0.707241936131683,0.6012113877586251
1.0,-0.08952714740356095,-0.2611780548520823,1.578166840648083,-0.06110406260818262,-0.2205247273678618,-1.5813355413192527,-0.2654007090629122,0.19753667122169288,0.50270852360301,-0.31238861476066243,-0.10091405766772495,-0.5982462577756652,-0.5820208991401132,0.6744609985548569,0.49385918652267785
1.0,-0.05759673406551145,-0.2611780548520823,1.4540347445558497,-0.10822968687742203,-0.2205247273678618,-1.6117179668393178,-0.2654007090629122,0.3106446648907614,0.50270852360301,-0.31238861476066243,-0.20695209465715708,-0.5764968843669595,-0.5820208991401132,0.6471435505741685,0.49385918652267785
1.0,-1.215074217569806,-0.2611780548520823,1.4763785218524517,-0.13796194195965905,-0.22032636865524943,1.0923179044464697,-0.2654007090629122,0.8022294066063289,0.5490635174754791,-0.31238861476066243,-0.09930083262573162,-0.5764968843669595,-0.5605263645791394,0.61982610259348,0.49385918652267785
1.0,-0.08952714740356095,-0.2611780548520823,1.5955453341009957,-0.17901120219634264,-0.220623906724168,1.0619354789264046,-0.2654007090629122,0.8457324810944324,0.50270852360301,-0.31238861476066243,-0.19707739814811015,-0.5547475109582539,-0.5605263645791394,0.5815816754205163,0.42229105236538006
1.0,-0.1054923540725857,-0.2611780548520823,1.6526460983034228,-0.379023697419345,-0.220623906724168,1.036616790993017,-0.2654007090629122,0.6412680310003466,0.5490635174754791,-0.31238861476066243,-0.09764897842926638,-0.5547475109582539,-0.5390318300181655,0.5324102690552771,0.27915478405078387
1.0,-0.08952714740356095,-0.2611780548520823,1.4068645480408006,-0.37852240532905024,-0.220623906724168,1.0112981030596295,-0.2654007090629122,0.632567416102726,0.409998535858072,-0.31238861476066243,-0.09677114118648153,-0.5329981375495482,-0.5390318300181655,0.499629331478451,0.27915478405078387
1.0,-1.215074217569806,-0.2611780548520823,1.5359619279767238,-0.38318788087006933,-0.21983047187371849,0.9809156775395644,-0.2654007090629122,0.5542618820241402,0.456353529730541,-0.31238861476066243,-0.20676725394005874,-0.5329981375495482,-0.5175372954571915,0.4449944355170742,0.27915478405078387
1.0,-0.04163152739648669,-0.2611780548520823,1.2802498100267228,-0.3887754881010336,-0.21606165633408334,0.9555969896061769,-0.2654007090629122,0.32369558723719255,0.409998535858072,-0.31238861476066243,-0.19643164815902142,-0.5112487641408425,-0.5175372954571915,0.4231404771325235,0.27915478405078387
1.0,0.7965418227273128,0.053364031080173124,-1.1229475703189153,-0.3926700716742384,-0.18660538751114542,-0.9787507685046297,0.11532102088200172,-0.4332579088558053,0.31728854811313395,-0.2294771668707007,0.041629637638386806,0.7284655201553808,0.6001785017134526,-1.2760047872662938,-1.5816167040389655
1.0,-1.1272655808901697,0.06164145439417985,0.02651563949516572,-0.34684971936775255,-0.1834316481093474,-1.0091331940246948,0.13374304007288465,-0.019978701218823693,0.17822356649572688,-0.21289487729270834,-0.18286600053505542,0.7719642669727924,0.6431675708354004,-1.30878572484312,-1.6531848381962637
1.0,0.8204896327308498,0.06991887770818657,0.05382470063545714,-0.35264977206718484,0.50953451440199,-1.0344518819580824,0.14602438620013994,-0.27229653324982295,-3.483820949429326,-0.19631258771471596,0.027223404848568823,0.8154630137902036,0.6861566399573481,-1.3524936416122215,-1.7605370394322106
1.0,0.8524200460688993,0.07819630102219328,-0.00575870548881493,-0.3487911995357044,-0.1353296603008461,-1.0648343074781472,0.16444640539102287,-0.34190145243078834,0.31728854811313395,-0.1797302981367236,-0.20564497833575318,0.8589617606076152,0.75064024364027,-1.3907380687851854,-1.9394573748254558
1.0,0.8843504594069489,0.0864737243362,0.004171862198563749,-0.3460026256335308,0.02841545696067072,-1.0901529954115348,0.1828684245819058,0.528160037331278,0.31728854811313395,-0.16314800855873127,-0.18581189591464134,0.9024605074250264,0.7936293127622177,-1.4562999439388375,-2.082593643140052
1.0,0.9162808727449984,0.09475114765020673,0.004171862198563749,-0.3513003781718197,5.146764497854128,-1.1154716833449223,0.20129044377278874,0.632567416102726,0.363643541985603,-0.14656571898073892,-0.18653618191348337,0.9677086276511436,0.8366183818841658,-1.5054713503040766,-2.225729911454648
1.0,0.9561938894175602,0.10302857096421345,-0.008241347410659544,-0.3361438136542784,-0.18144806098322364,-1.1407903712783098,0.21971246296367167,0.35414773937886457,0.409998535858072,-0.08023656066876951,0.0005125015602924286,1.0112073744685548,0.9011019855670873,-1.5655697358615912,-2.404650246847893
1.0,0.9961069060901221,0.11130599427822017,0.011619787964097813,-0.35540327139940464,-0.21943375444849375,-1.1661090592116974,0.23813448215455457,0.2932434350955201,0.2245785603681959,-0.04707198151278482,-0.187799373720394,1.076455494694672,0.9440910546890354,-1.6256681214191053,-2.5835705822411383
1.0,-1.0873525642176078,0.11958341759222689,0.04885941679176791,-0.3609113607299871,-0.20822648718589448,-1.1914277471450847,0.2565565013454375,0.2714918978514685,0.08551357875078884,0.002674887221192244,-0.01170443348258474,-0.8374893652714276,1.008574658371957,-1.6748395277843444,-2.655138716398436
1.0,1.0280373194281716,-0.08735216525794114,-1.1229475703189153,-0.3739827863153091,-0.220623906724168,-1.0091331940246948,-0.07503984409045522,0.6891214129372604,0.50270852360301,-0.21289487729270834,-0.1939897205687039,0.5544705328857357,0.5142003634695568,-1.2432238496894679,-0.543878758758144
1.0,-1.0793699608830956,-0.08735216525794114,-1.1229475703189153,-0.37460842366529884,-0.220623906724168,-1.0395156195447597,-0.07503984409045522,1.019744779046846,0.5490635174754791,-0.16314800855873127,-0.2066672525567069,0.5544705328857357,0.5356948980305308,-1.2760047872662938,-0.5796628258367928
1.0,1.1477763694458574,-0.08735216525794114,-1.1229475703189153,-0.37541560106566235,-0.21576411826516478,-1.0648343074781472,-0.06889917102682758,0.980592012007553,0.5490635174754791,-0.12998342940274657,-0.19480188398988377,0.5762199062944413,0.5571894325915047,-1.3033222352469824,-0.6512309599940906
1.0,1.2196197994564686,-0.08735216525794114,-0.0926511727533782,-0.3953938850135541,-0.20782976976066972,-1.0901529954115348,-0.06889917102682758,1.1415533876135349,0.5490635174754791,-0.08023656066876951,-0.20669320407981412,0.5979692797031468,0.5786839671524785,-1.347030152016084,-0.7943672283086869
1.0,-1.0793699608830956,-0.07907474194393442,-0.0926511727533782,-0.3797312020071767,-0.1715301253526048,-1.1154716833449223,-0.06275849796319995,1.245960766384983,0.5490635174754791,-0.013907402356800122,-0.19558664782703908,0.6197186531118527,0.6001785017134526,-1.4781539023233883,-1.009071630780581
1.0,1.355324056143179,-0.07907474194393442,-0.11996023389366962,-0.396284025099855,-0.1903742030507806,-1.1357266336916323,-0.06275849796319995,0.4368035809062611,0.456353529730541,0.06900404553316164,-0.19598077593672295,0.6414680265205582,0.6216730362744264,-1.6147411422268299,-1.2595601003311245
1.0,-1.0634047542140708,-0.07907474194393442,-0.05044626008201887,-0.38834424552568764,-0.20346587808319744,-1.1610453216250198,-0.056617824899572296,0.828331251299191,0.363643541985603,0.15191549342312338,-0.09144592555624041,0.6632173999292641,0.6431675708354004,-1.7076204653611706,-1.5100485698816675
1.0,1.4910283128298893,-0.07079731862992769,0.0016892202767191343,-0.3964568233276139,-0.21635919440300191,-1.1813002719717298,-0.05047715183594465,-2.0254704351203867,0.6881284990928861,0.23482694131308515,-0.09531723123874916,0.6849667733379696,0.6646621053963743,-1.7622553613225473,-1.7605370394322106
1.0,1.5389239328369637,-0.07079731862992769,-0.008241347410659544,-0.38535623510723593,-0.14286729138011642,-1.1964914847317625,-0.05047715183594465,2.4074928552173414,0.363643541985603,0.3011560996250545,-0.09906848983187361,0.7067161467466753,0.7076511745183219,-1.8660616636491634,-2.225729911454648
1.0,1.6027847595130627,-0.07079731862992769,0.24995341246118588,-0.39644497034109044,-0.220623906724168,-1.2167464350784722,-0.04433647877231701,1.6896921261636366,0.13186857262325788,0.38406754751501626,-0.10264674773540049,0.7284655201553808,0.7291457090792962,-1.887915622033714,-2.333082112690595
1.0,1.674628189523674,-0.07079731862992769,0.2946409670543898,-0.3910551170489252,-0.22042554801155562,-1.231937647838505,-0.038195805708689363,0.49770788518960557,-0.05355140286661822,0.466978995404978,-0.10606584670809867,0.7719642669727924,0.75064024364027,-1.9261600492066775,-2.476218381005191
1.0,-0.40883128078405595,-0.269455478166089,-1.1229475703189153,-0.16202308040168828,-0.220623906724168,-1.753502619266288,-0.27154138212653983,-0.520264057832012,0.50270852360301,-0.2958063251826701,-0.20055911865714635,0.4239742924335015,0.38523315610371334,0.06255016378743705,0.49385918652267785
1.0,-1.2470046309078553,-0.269455478166089,-1.1229475703189153,-0.21228440329402504,-0.220623906724168,-0.4268033715567818,-0.27154138212653983,-0.7247285079260974,0.409998535858072,-0.2958063251826701,-0.20795872414153302,0.4457236658422073,0.4282222252256612,0.06255016378743705,0.5296432536013268
1.0,-0.3769008674460065,-0.269455478166089,-1.1229475703189153,-0.3783568800377278,-0.220623906724168,-0.46224953466352425,-0.27154138212653983,-0.5855186695641668,0.456353529730541,-0.27922403560467773,-0.20073598084252353,0.4892224126596185,0.4712112943476089,0.02430573661447327,0.38650698528673055
1.0,-0.3689182641114941,-0.269455478166089,0.13326924213448657,-0.3949315122211506,-0.220623906724168,-0.5027594353569443,-0.27154138212653983,-0.5898689770129774,-3.483820949429326,-0.27922403560467773,-0.20794948210567812,0.5327211594770299,0.49270582890858294,0.0024517782299225393,0.35072291820808166
1.0,-0.3609356607769817,-0.269455478166089,0.05382470063545714,-0.234311596221334,-0.220623906724168,-0.5382055984636869,-0.27154138212653983,-0.48981190569033956,0.6881284990928861,-0.2626417460266854,-0.20728909534398351,0.5544705328857357,0.5356948980305308,-0.024865669750765873,0.2075866498934854
1.0,-0.35295305744246935,-0.269455478166089,-0.020654557019882835,-0.20412615703225376,-0.220623906724168,-0.5736517615704293,-0.27154138212653983,-0.7464800451701491,0.6881284990928861,-0.2626417460266854,-0.20097755147556082,0.5979692797031468,0.5786839671524785,-0.05764660732759197,0.10023444865753872
1.0,-0.35295305744246935,-0.269455478166089,-0.0926511727533782,-0.19238839901856825,-0.220623906724168,-0.6040341870904944,-0.27154138212653983,-0.8682886537368385,0.6881284990928861,-0.2626417460266854,-0.20105194205602128,0.6414680265205582,0.6216730362744264,-0.09042754490441807,0.028666314500240292
1.0,-0.33698785077344456,-0.269455478166089,0.18540472249322457,-0.20100681285741895,-0.220623906724168,-0.6394803501972369,-0.27154138212653983,-0.7203782004772873,0.6417735052204171,-0.2294771668707007,-0.2011269714868865,0.7067161467466753,0.6646621053963743,-0.16145290965420794,-0.0786858867357064
1.0,-0.3130400407699075,-0.269455478166089,-0.07030739545677622,-0.38239825995072535,-0.220623906724168,-0.669862775717302,-0.27154138212653983,-0.36800329712365015,0.5490635174754791,-0.2294771668707007,-0.20734004721292867,0.7502148935640868,0.7291457090792962,-0.19423384723103404,-0.0786858867357064
1.0,-0.27312702409734557,-0.269455478166089,-0.06782475353493161,-0.3955338542813887,-0.220623906724168,-0.7002452012373669,-0.27154138212653983,-0.47676098334390843,0.50270852360301,-0.19631258771471596,-0.20129550022365103,0.793713640381498,0.7721347782012439,-0.2707227015769616,-0.32917435628624997
1.0,-1.2310394242388307,-0.269455478166089,-0.08520324698784414,-0.26089437104776947,-0.220623906724168,-0.730627626757432,-0.27154138212653983,-0.1548382321319442,0.409998535858072,-0.19631258771471596,-0.20139349987573474,0.8372123871989092,0.8151238473231915,-0.31443061834606306,-0.36495842336489887
1.0,-0.19330099075222182,-0.269455478166089,-0.0926511727533782,-0.278551327087864,-0.220623906724168,-0.7559463146908195,-0.27154138212653983,-0.41585667906056395,0.363643541985603,-0.1797302981367236,-0.2073776400100774,0.8807111340163208,0.8581129164451397,-0.32535759753833843,-0.2933902892076004
1.0,-0.16137057741417232,-0.269455478166089,-0.17706099809609696,-0.30918722904908474,-0.220623906724168,-0.7863287402108845,-0.27154138212653983,-0.34190145243078834,0.31728854811313395,-0.19631258771471596,-0.20739085711511723,0.9459592542424375,0.9011019855670873,-0.3417480663267515,-0.2933902892076004
1.0,0.08609012595571132,-0.17840382171201508,-1.1229475703189153,-0.3905132569088932,-0.220623906724168,-0.9736870309179523,-0.1978533053630081,-0.12003577254146151,0.17822356649572688,-0.2958063251826701,-0.2058638200910582,-0.6417450045930766,1.309498142225592,-0.4291638998649538,-0.43652655752219666
1.0,0.11802053929376081,-0.17840382171201508,-1.1229475703189153,-0.3924586223547165,-0.220623906724168,-1.0091331940246948,-0.19171263229938046,-0.011278086321203215,-0.05355140286661822,-0.2958063251826701,-0.18641560954709963,1.33744797559914,1.3309926767865659,-0.46740832703791757,-0.47231062460084555
1.0,0.14196834929729793,-0.17012639839800836,-1.1229475703189153,-0.39350683690158267,-0.21913621637957517,-1.0395156195447597,-0.18557195923575281,0.12358144459191729,0.08551357875078884,-0.27922403560467773,0.0017495998773392398,1.33744797559914,1.3524872113475397,-0.5001892646147437,-0.5080946916794951
1.0,-1.1911264075662689,-0.16184897508400162,-0.5991101248096904,-0.3632166680465704,-0.1490164114711001,-1.0698980450648248,-0.17943128617212517,-0.13743700233670286,0.17822356649572688,-0.27922403560467773,-0.0016431216719819325,1.33744797559914,1.3524872113475397,-0.5384336917877074,-0.5080946916794951
1.0,0.1898639693043722,-0.1535715517699949,-0.579248989434933,-0.3650940551644761,-0.10597257083421438,-1.1002804705848899,-0.17329061310849753,-0.002577471423582351,0.2245785603681959,-0.24605945644869304,-0.205990241487814,1.33744797559914,1.373981745908514,-0.614922546133635,-0.543878758758144
1.0,0.21381177930790932,-0.1452941284559882,-0.5966274828878457,-0.36994419745344714,0.25335423706310567,-1.1255991585182774,-0.16714994004486988,0.1757851339776413,0.456353529730541,-0.2294771668707007,-0.20782084602751927,1.3591973490078455,1.3954762804694878,-0.6094590565374973,-0.5796628258367928
1.0,0.2457421926459588,-0.13701670514198147,-0.5693184217475543,-0.3672456917808586,0.19702036268119075,-1.1559815840383423,-0.16100926698124224,-0.17658976937599577,0.31728854811313395,-0.21289487729270834,-0.2060614378162509,1.380946722416551,1.3954762804694878,-0.6586304629027364,-0.5796628258367928
1.0,-1.151213390893707,-0.13701670514198147,-0.609040692497069,-0.364610172571285,-0.18154724033952982,-1.1813002719717298,-0.14872792085398695,-0.9596451101618554,-0.09990639673908724,-0.1797302981367236,-0.013869199373984394,1.402696095825257,1.4169708150304616,-0.7460462964409393,-0.6512309599940906
1.0,0.3814464493326692,-0.12873928182797476,-0.6214539021062925,-0.36815296593289465,-0.2019781877386046,-1.2066189599051174,-0.1425872477903593,-0.642072666398701,-3.5301759433017947,-0.14656571898073892,-0.016739823979218884,1.4244454692339628,1.4384653495914355,-0.8116081715945915,-0.7227990941513891
1.0,1.5788369495095256,0.11958341759222689,-1.1229475703189153,-0.36253052398015956,-0.13820586163372556,-0.49263196018358935,0.16444640539102287,-0.807384349453494,0.13186857262325788,0.2845738100470622,-0.17645945251311337,0.18473118493773916,0.1702878104939741,-0.6804844212872871,-0.6154468929154417
1.0,1.5628717428405008,0.12786084090623362,-1.1229475703189153,-0.3615717082890286,-0.1452475959314649,-0.5230143857036543,0.17672775151827816,-0.7247285079260974,0.2245785603681959,0.3343206787810392,0.09940638804717102,0.20648055834644477,0.19178234505494793,-0.7132653588641132,-0.6154468929154417
1.0,1.6027847595130627,0.14441568753424705,-1.1229475703189153,-0.35845605324558344,-0.16022367873369936,-0.5533968112237194,0.1951497707091611,-0.7029769706820459,0.03915858487831982,0.4338144162489933,-0.17705019038401806,0.22822993175515055,0.21327687961592198,-0.7405828068448017,-0.6154468929154417
1.0,1.6187499661820874,0.15269311084825377,0.41132513738108933,-0.3501417552180952,-0.17063751114584913,-0.5837792367437843,0.21357178990004402,-0.8682886537368385,-0.09990639673908724,0.48356128498297046,-0.20444886582133795,0.24997930516385614,0.23477141417689582,-0.7952177028061785,-0.758583161230038
1.0,-1.047439547545046,0.16924795747626722,0.4013945696937107,-0.3400672259197829,-0.19682086121068282,-0.6141616622638494,0.23199380909092693,-0.29404807049387455,-0.007196408994149198,0.5830550224509246,-0.17967498535351714,0.2717286785725617,0.2777604832988437,-0.8279986403830046,-0.8659353624659853
1.0,1.6347151728511122,0.17752538079027394,0.33684587972574914,-0.3922969534926158,-0.19572988829131474,-0.6445440877839145,0.25041582828180986,-0.11133515764384065,-3.5301759433017947,0.7157133390748633,0.06784470783254824,0.3152274253899731,0.29925501785981756,-0.8662430675559684,-1.0448556978592305
1.0,1.7065586028617235,0.19408022741828737,0.339328521647594,-0.35837138068466673,-0.1715301253526048,-0.669862775717302,0.26269717440906515,-0.3375511449819781,-0.007196408994149198,0.7820424973868327,-0.20776334949109468,0.3369767987986789,0.34224408698176545,-0.9044874947289319,-1.187991966173826
1.0,1.8103324462103845,0.20235765073229411,0.2251269932427393,-0.39313828599751444,-0.2107059710935492,-0.6951814636506896,0.27497852053632044,-0.520264057832012,-0.09990639673908724,0.8317893661208098,0.053120597278018364,0.3804755456160901,0.3637386215427393,-0.9591223906903087,-1.4742645028030186
1.0,1.802349842875872,0.21063507404630083,0.17050887096215644,-0.39689129191731404,-0.2011847528881551,-0.7255638891707544,0.2872598666635757,-0.5507162099736841,-0.14626139061155627,0.8649539452767945,0.04608150217535174,0.4022249190247959,0.40672769066468717,-0.9591223906903087,-1.4026963686457208
1.0,-1.3108654575839545,0.21063507404630083,0.12333867444710789,-0.3559119118723829,-0.1606203961589241,-0.750882577104142,0.299541212790831,-0.5246143652808223,-3.5301759433017947,0.8981185244327793,-0.18329087864421972,0.4457236658422073,0.44971675978663506,-0.9591223906903087,-1.3669123015670712
1.0,-0.8239266541786995,-0.25290063153807557,0.8855097444534207,-0.3393328910358127,-0.1791669357881813,1.4315883227538626,-0.25926003599928454,-1.9602158233882316,0.31728854811313395,-0.31238861476066243,0.296581872596371,-0.946236232314956,-0.9474279866766699,1.5322288651484723,1.3526767964102546
1.0,-0.8079614475096747,-0.25290063153807557,0.9103361636718672,5.136905594864422,-0.21239202015075437,1.401205897233797,-0.25926003599928454,-1.8645090595144045,0.31728854811313395,-0.31238861476066243,0.29105776154012775,-0.946236232314956,-0.9474279866766699,1.5158383963600595,1.3526767964102546
1.0,-0.7999788441751624,-0.25290063153807557,0.9351625828903143,5.145666756241182,-0.21963211316110612,1.3758872093004098,-0.25926003599928454,-1.8166556775774907,0.50270852360301,-0.31238861476066243,-0.15869158889367047,-0.946236232314956,-0.9474279866766699,1.504911417167784,1.3526767964102546
1.0,-0.7999788441751624,-0.25290063153807557,0.9103361636718672,0.15520277885855469,-0.14098288361029884,1.3455047837803449,-0.25926003599928454,-1.7992544477822494,0.13186857262325788,-0.31238861476066243,-0.15927744310814798,-0.946236232314956,-0.9474279866766699,1.4830574587832333,1.3526767964102546
1.0,-1.2869176475804174,-0.25290063153807557,0.9599890021087608,4.520793878410464,-0.21080515044985537,1.3151223582602796,-0.25926003599928454,2.2813339392018412,0.2245785603681959,-0.31238861476066243,-0.20313103100981048,-0.946236232314956,-0.9689225212376438,1.455740010802545,1.3526767964102546
1.0,-0.7680484308371128,-0.25290063153807557,0.9599890021087608,0.0943746888436795,-0.21923539573588136,1.2898036703268922,-0.25926003599928454,2.2682830168554107,0.31728854811313395,-0.31238861476066243,0.26938114140778396,-0.946236232314956,-0.9689225212376438,1.455740010802545,1.3526767964102546
1.0,-0.7520832241680881,-0.25290063153807557,0.9351625828903143,4.398124515676117,-0.21447478663318434,1.2594212448068272,-0.25926003599928454,-2.0254704351203867,0.363643541985603,-0.31238861476066243,0.2639466823583361,-0.946236232314956,-0.9689225212376438,1.4502765212064073,1.3168927293316057
1.0,-0.7520832241680881,-0.25290063153807557,0.9351625828903143,4.121104906012107,-0.21060679173724298,1.2341025568734396,-0.25926003599928454,1.6853418187148264,0.456353529730541,-0.31238861476066243,0.2588664729566421,-0.946236232314956,-0.9689225212376438,1.4338860524179942,1.3168927293316057
1.0,-0.7441006208335758,-0.25290063153807557,0.9103361636718672,0.04105781637812989,-0.21933457509218757,1.2037201313533745,-0.25926003599928454,1.6505393591243436,0.50270852360301,-0.31238861476066243,-0.20340813592202572,-0.946236232314956,-0.9689225212376438,1.417495583629581,1.3168927293316057
1.0,-0.7361180174990634,-0.25290063153807557,0.860683325234974,3.203626406146434,-0.22002883058633088,1.1733377058333094,-0.25926003599928454,1.5722338250457577,0.409998535858072,-0.31238861476066243,-0.20757405101783896,-0.946236232314956,-0.9689225212376438,1.3901781356488927,1.3168927293316057
1.0,-0.728135414164551,-0.25290063153807557,0.8110304867980807,2.73745822179552,-0.21992965123002467,-1.5965267540792851,-0.25926003599928454,1.5678835175969477,0.31728854811313395,-0.31238861476066243,-0.2075785513640233,-0.946236232314956,-0.9689225212376438,1.3628606876682043,1.3168927293316057
1.0,-0.7201528108300386,-0.25290063153807557,0.786204067579634,2.2680852103811255,-0.21913621637957517,-1.6269091795993502,-0.25926003599928454,1.5591829026993262,0.31728854811313395,-0.31238861476066243,-0.20758308010355897,-0.946236232314956,-0.9689225212376438,1.3410067292836536,1.3168927293316057
1.0,2.1456017862599044,-0.1452941284559882,-1.1229475703189153,-0.3670526210043486,-0.19979624189986847,-0.811647428144272,-0.13644657472673166,-0.7638812749653904,-1.722331182275503,0.417232126671001,-0.14392921829823582,0.7719642669727924,0.7291457090792962,-1.5655697358615912,-1.7963211065108597
1.0,2.2573582329430772,-0.13701670514198147,-1.1229475703189153,-0.3676564646028012,-0.1615130103656798,-0.8369661160776595,-0.13030590166310402,-0.9291929580201832,-2.8348510352147596,0.516725864138955,-0.14415265977645478,0.793713640381498,0.7721347782012439,-1.428982495958149,-1.7963211065108597
1.0,2.161566992928929,-0.13701670514198147,-1.1229475703189153,-0.3932622896506683,-0.20663961748499546,-0.8572210664243697,-0.13030590166310402,-1.0161991069963896,-1.722331182275503,0.516725864138955,-0.2016525608131856,0.8372123871989092,0.7936293127622177,-1.4508364543426997,-1.7963211065108597
1.0,2.1934974062669785,-0.13701670514198147,-0.713311653214545,-0.3641585268089072,-0.15328112379226616,-1.7940125199597077,-0.12416522859947637,-0.9683457250594761,-1.722331182275503,0.6328018911849015,-0.14448628165447405,0.8589617606076152,0.8366183818841658,-1.4781539023233883,-1.9036733077468069
1.0,2.2174452162705154,-0.12873928182797476,-0.7108290112927004,-0.37271366316796184,-0.22042554801155562,-1.8193312078930952,-0.12416522859947637,-0.8943904984297005,-1.815041170020441,0.7654602078088403,-0.14487850740961944,0.9024605074250264,0.8581129164451397,-1.5273253086886274,-1.9752414419041049
1.0,2.2733234396121023,-0.12873928182797476,-0.7381380724329918,-0.37443768080887446,-0.21953293380479993,-0.9281133926378546,-0.11802455553584873,-1.033600336791631,-1.9541061516378482,0.8815362348547868,-0.20740211507891593,0.924209880833732,0.9011019855670873,-1.5655697358615912,-2.0468095760614027
1.0,1.546906536171476,0.11130599427822017,-1.1229475703189153,-0.39101217993119836,-0.09417022743377797,-0.9838145060913073,0.20743111683641638,-1.0161991069963896,-2.185881121000193,0.15191549342312338,-0.01539186382194005,0.8372123871989092,0.7721347782012439,-1.3197127040353953,-1.7247529723535617
1.0,1.5788369495095256,0.11130599427822017,-0.9665411292427011,-0.35392688220679164,-0.19820937219896945,-1.0091331940246948,0.20743111683641638,-1.1032052559725964,-2.093171133255255,0.18508007257910813,-0.021579470711847504,0.8589617606076152,0.8151238473231915,-1.3361031728238084,-1.7247529723535617
1.0,1.5868195528440379,0.11130599427822017,-0.9715064130863904,-0.3645595078751163,-0.2087223839674254,-1.0243244067847272,0.21357178990004402,-1.2859181688226302,-3.7155959187916707,0.2679915204690699,-0.18993009598356,0.9024605074250264,0.8581129164451397,-1.3688841104006346,-1.7247529723535617
1.0,1.570854346175013,0.11130599427822017,-0.9864022646174585,-0.358908490907262,0.6372775253243604,-1.0445793571314372,0.21357178990004402,-1.2119629421928546,-2.371301096490069,0.3177383892030469,-0.03357478145099025,0.9459592542424375,0.9011019855670873,-1.428982495958149,-1.9394573748254558
1.0,1.5628717428405008,0.11130599427822017,-1.0012981161485266,-0.3726626611081689,-0.20138311160076747,-1.0648343074781472,0.21971246296367167,-1.307669706066682,-2.093171133255255,0.3509029683590315,-0.19115687331740172,0.9894580010598492,0.9440910546890354,-1.483617391919526,-1.9394573748254558
1.0,-1.047439547545046,0.11130599427822017,-1.0087460419140606,-0.3946052778863436,-0.20425931293364694,-1.0850892578248574,0.21971246296367167,-1.15105863790951,-2.7884960413422903,0.4006498370930087,-0.19166704505393367,1.0329567478772603,0.9870801238109831,-1.5764967150538662,-2.082593643140052
1.0,1.802349842875872,0.11130599427822017,-1.0137113257577497,-0.36952471476268134,-0.21437560727687813,-1.1002804705848899,0.21971246296367167,-1.320720628413113,-3.0202710107046356,0.4503967058269857,-0.04996896053685767,1.076455494694672,1.0300691929329309,-1.6038141630345546,-2.189945844375999
1.0,-0.6802397941574767,-0.25290063153807557,0.6521414038000221,0.940484421757152,-0.220623906724168,1.2644849823935047,-0.25926003599928454,0.7978790991575186,0.50270852360301,-0.31238861476066243,0.042024603351934656,-0.880988112088839,-0.8829443829937482,1.144321103822697,1.4600289976462013
1.0,-0.6722571908229643,-0.25290063153807557,0.6620719714874007,0.9912165957681188,-0.220623906724168,1.2341025568734396,-0.25926003599928454,0.6847711054884501,0.31728854811313395,-0.31238861476066243,0.03988351751553654,-0.880988112088839,-0.8829443829937482,1.08968620786132,1.2453245951743073
1.0,-0.6722571908229643,-0.25290063153807557,0.5528357269262353,0.8880467305414488,-0.220623906724168,1.198656393766697,-0.25926003599928454,0.5586121894729504,-3.483820949429326,-0.31238861476066243,-0.18333416430830826,-0.880988112088839,-0.8829443829937482,1.0623687598806317,1.2095405280956584
1.0,-0.6562919841539396,-0.25290063153807557,0.6769678230184686,-0.2771140160113955,-0.22002883058633088,1.1682739682466323,-0.25926003599928454,0.4542048107015024,0.456353529730541,-0.31238861476066243,0.03548787181418677,-0.880988112088839,-0.8829443829937482,1.0295878223038055,1.1737564610170095
1.0,-0.6323441741504024,-0.25290063153807557,0.8433048317820613,-0.2965157670544271,-0.220623906724168,-1.5965267540792851,-0.25926003599928454,0.4411538883550713,0.363643541985603,-0.31238861476066243,0.0332163611184966,-0.880988112088839,-0.8614498484327742,1.0022703743231172,1.102188326859711
1.0,-0.6163789674813778,-0.25290063153807557,0.7787561418141,-0.29422235813983855,-0.2205247273678618,1.1024453796198246,-0.25926003599928454,0.6238668012051052,0.456353529730541,-0.31238861476066243,0.030889355617649956,-0.880988112088839,-0.8614498484327742,1.0077338639192548,1.1379723939383606
1.0,-0.6403267774849148,-0.25290063153807557,0.6893810326276919,-0.2600905804923,-0.220623906724168,1.0720629540997595,-0.25926003599928454,0.39765081386696816,0.50270852360301,-0.31238861476066243,0.02851141244453381,-0.8592387386801333,-0.8614498484327742,0.9421719887656033,1.102188326859711
1.0,-1.2709524409113926,-0.25290063153807557,0.7092421680024492,-0.2783232674696979,-0.220623906724168,1.0416805285796946,-0.25926003599928454,0.17143482652883069,0.5490635174754791,-0.31238861476066243,0.026094357429973278,-0.8592387386801333,-0.8614498484327742,0.9039275615926395,0.9590520585451154
1.0,-0.6163789674813778,-0.25290063153807557,0.6943463164713813,0.32792257554516446,-0.220623906724168,1.0112981030596295,-0.25926003599928454,0.09747959989905508,0.456353529730541,-0.31238861476066243,0.023654019867329696,-0.8592387386801333,-0.8614498484327742,0.8984640719965018,0.9948361256237643
1.0,-0.6562919841539396,1.1459839085290604,0.30953681858545795,-0.33496364573564147,4.998987256957907,-0.31540114464987673,0.9443118844717335,-0.17658976937599577,0.6881284990928861,-0.31238861476066243,-0.20609596413145695,-0.25025628323637433,-0.41006462265232185,0.499629331478451,0.35072291820808166
1.0,-0.6403267774849148,1.2618678349251544,0.31201946050730256,-0.39177782384938964,2.445614728855091,-1.733247668919578,1.0548439996170311,-0.24619468855696114,0.6881284990928861,-0.31238861476066243,-0.20610574564098696,-0.22850690982766875,-0.36707555353037397,0.4449944355170742,0.2075866498934854
1.0,-0.6323441741504024,1.3943066079492619,0.29960625089807924,-0.34374284075950207,0.392602053316994,-1.7788213071996755,1.159235441698701,-0.3027486853914954,0.6881284990928861,-0.31238861476066243,-0.20610635609804037,-0.20675753641896305,-0.34558101896940013,0.3903595395556974,0.10023444865753872
1.0,-0.6163789674813778,1.510190534345356,0.2722971897577878,-0.3455435835324794,0.7655164330282619,-0.46224953466352425,1.2697675568439986,-0.2853474555962541,0.6881284990928861,-0.31238861476066243,-0.206124556236237,-0.16325878960155177,-0.30259194984745225,0.37396907076728436,0.24337071697213494
1.0,-0.6083963641468654,1.6426293073694636,0.3020888928199239,-0.39421984771386875,3.5639611505636695,-0.5078231729436218,1.3741589989256686,-0.46371006099747775,0.6881284990928861,-0.31238861476066243,-0.20613361371530833,-0.14150941619284596,-0.2810974152864783,0.3247976644020452,0.13601851573618762
1.0,-0.600413760812353,1.7833455037075778,0.08609904561943779,-0.3688472201282644,4.982424304454774,-0.5483330736370418,1.4969724601982215,-0.06783208315573748,0.6881284990928861,-0.31238861476066243,-0.20614282735781192,-0.09801066937543458,-0.23810834616453053,0.2756262580368067,0.028666314500240292
1.0,-0.5684833474743035,1.9323391233596987,-0.065342111613087,-0.37513505668674263,12.815609865517523,-0.5888429743304618,1.6197859214707744,-0.5942192844617876,0.5954185113479481,-0.31238861476066243,-0.18922707660485724,-0.07626129596672898,-0.19511927704258264,0.22099136207542983,-0.0786858867357064
1.0,-0.5764659508088159,2.0896101663258264,-0.16216514656502895,-0.21965769693659204,10.592207055845394,-0.6293528750238819,1.7671620749978378,-0.7116775855796664,0.409998535858072,-0.31238861476066243,-0.1893231880990781,-0.03276254914931759,-0.17362474248160878,0.14996599732563998,-0.2576062221289515
1.0,-0.5605007441397911,2.2717134792339744,-0.311123661875709,-0.38052636274177504,9.657838340084794,-0.669862775717302,1.9391009207794119,-0.62467143660346,0.409998535858072,-0.31238861476066243,-0.20784662719051855,-0.011013175740611992,-0.1306356733596609,0.07894063257585009,-0.40074249044354776
1.0,-0.5525181408052787,2.4786490620841426,-0.400498771062117,-0.2998323790533024,12.099336554274231,-0.7103726764107219,2.1356024588154967,-0.5637671323201152,0.13186857262325788,-0.31238861476066243,-0.20784293605484686,0.0324855710767994,-0.10914113879868687,0.013378757422197905,-0.543878758758144
1.0,-1.2549872342423678,2.7104169148763306,-0.370707067999981,-0.39653637689647164,6.776380501321107,-0.7458188395174645,2.350526016042464,-0.5376652876272533,0.13186857262325788,-0.31238861476066243,-0.20619182008551595,0.054234944485505,-0.06615206967673917,-0.05218311773145429,-0.6870150270727402
1.0,-1.239022027573343,2.967017037610539,-0.39056820337473835,-0.3275364690973591,6.908289045208337,-0.7863287402108845,2.59615293858757,-0.4941622131391498,0.08551357875078884,-0.31238861476066243,-0.2078498640325691,0.09773369130291638,-0.04465753511576514,-0.11774499288510648,-0.7943672283086869
1.0,-1.215074217569806,3.223617160344747,-0.4029814129839616,-0.3369624873973453,5.5655989195351605,-0.8217749033176271,2.8663425533871862,-0.5072131354855809,0.08551357875078884,-0.31238861476066243,-0.2080145454702297,0.14123243812032776,-0.0016684659938172542,-0.1723798888464833,-0.8659353624659853
1.0,-1.2549872342423678,3.5133269763349824,-0.4203599064368744,-0.3893469811480418,8.602569988986952,-0.8572210664243697,3.1549541873776854,-0.6072702068082187,0.08551357875078884,-0.31238861476066243,-0.20622716980791034,0.18473118493773916,0.01982606856715659,-0.21608780561558477,-0.9017194295446342
1.0,-0.42479648745308074,3.7864819456972043,-0.36574178415629166,-0.38751043347984543,6.830334071151674,-1.804139995133063,3.4619878405590674,-0.5898689770129774,0.03915858487831982,-0.31238861476066243,-0.19010741246255833,0.22822993175515055,0.04132060312813044,-0.2652592119808239,-0.9375034966232831
1.0,-0.19330099075222182,-0.17840382171201508,-0.03803305047279558,0.4187842965199273,-0.220623906724168,0.9657244647795321,-0.1978533053630081,0.5412109596777092,-3.483820949429326,-0.31238861476066243,0.47045348565568146,-0.5982462577756652,-0.6465045028230351,0.48323886269003796,0.5296432536013268
1.0,-0.18531838741770945,-0.17840382171201508,-0.030585124707261515,-0.3888170942609239,-0.2205247273678618,0.9252145640861118,-0.19171263229938046,0.38459989152053703,0.31728854811313395,-0.31238861476066243,0.46408017205146035,-0.5982462577756652,-0.6465045028230351,0.4395309459209365,0.42229105236538006
1.0,-0.2012835940867342,-0.17840382171201508,-0.02313719894172745,0.44858410956063177,-0.2205247273678618,0.8897684009793695,-0.19171263229938046,0.42375265855982996,0.31728854811313395,-0.31238861476066243,0.45752832105413416,-0.5982462577756652,-0.6465045028230351,0.41221349794024814,0.38650698528673055
1.0,-0.19330099075222182,-0.17012639839800836,-0.040515692394640195,-0.2926408232610889,-0.22002883058633088,0.8543222378726268,-0.18557195923575281,0.29759374254433035,0.03915858487831982,-0.31238861476066243,-0.14206584783110635,-0.5764968843669595,-0.6250099682620611,0.37396907076728436,0.31493885112943276
1.0,-1.2230568209043182,-0.17012639839800836,-0.06285946969124216,-0.33304788279472086,-0.220623906724168,0.813812337179207,-0.17943128617212517,0.34979743193005436,0.17822356649572688,-0.31238861476066243,-0.1428431016268373,-0.5764968843669595,-0.6250099682620611,0.34665162278659595,0.24337071697213494
1.0,-1.2230568209043182,-0.16184897508400162,-0.047963618160174255,0.13798454626671075,-0.220623906724168,0.7783661740724643,-0.17943128617212517,0.49770788518960557,0.363643541985603,-0.31238861476066243,0.43672601738901146,-0.5764968843669595,-0.6250099682620611,0.3247976644020452,0.10023444865753872
1.0,-0.17733578408319708,-0.1535715517699949,-0.020654557019882835,0.15869535073309735,-0.220623906724168,0.7429200109657216,-0.17329061310849753,0.2888931276467098,0.363643541985603,-0.31238861476066243,-0.14426778061938492,-0.5547475109582539,-0.6250099682620611,0.28108974763294436,0.028666314500240292
1.0,-0.19330099075222182,-0.1535715517699949,0.03148092333885517,0.04641002460354642,-0.220623906724168,0.7024101102723017,-0.16714994004486988,0.12793175204072751,0.409998535858072,-0.31238861476066243,0.4219386322510632,-0.5547475109582539,-0.6035154337010872,0.23738183086384287,-0.0786858867357064
1.0,-0.1693531807486847,-0.1452941284559882,-0.0007934216451254803,-0.3619366342916884,-0.220623906724168,0.6669639471655591,-0.16714994004486988,0.06702744775738302,0.409998535858072,-0.31238861476066243,0.4142887535714594,-0.5547475109582539,-0.6035154337010872,0.20460089328701678,-0.22182215505030262
1.0,-0.19330099075222182,-0.1452941284559882,-0.03803305047279558,-0.09495259917967362,-0.220623906724168,-1.6522278675327378,-0.16100926698124224,-0.05913146825811662,0.409998535858072,-0.31238861476066243,0.4064793326507841,-0.5329981375495482,-0.6035154337010872,0.1445025077295023,-0.36495842336489887
1.0,-0.16137057741417232,-0.13701670514198147,-0.06782475353493161,-0.37345513748432785,-0.220623906724168,0.5910078833653964,-0.1548685939176146,-0.2548953034545816,0.2245785603681959,-0.31238861476066243,0.39850831097106654,-0.5329981375495482,-0.5820208991401132,0.1445025077295023,-0.2933902892076004
1.0,-1.2230568209043182,-0.13701670514198147,-0.07030739545677622,-0.1598739606218835,-0.220623906724168,0.5504979826719766,-0.1548685939176146,-0.015628393770013453,0.363643541985603,-0.31238861476066243,0.3903876421332127,-0.5112487641408425,-0.5820208991401132,0.14996599732563998,-0.18603808797165372
1.0,-0.04163152739648669,-0.12873928182797476,-0.020654557019882835,-0.17347865909199867,-0.20683797619760783,0.5099880819785567,-0.14872792085398695,-0.12438607999027175,-0.14626139061155627,-0.31238861476066243,0.38215839711990823,-0.5112487641408425,-0.5605263645791394,0.13357552853722693,-0.22182215505030262
1.0,-0.025666320727461944,-0.12873928182797476,-0.025619840863572288,-0.16748374950845196,-0.22032636865524943,0.474541918871814,-0.1425872477903593,0.001772836025227888,-3.5301759433017947,-0.31238861476066243,-0.2009500667114823,-0.5112487641408425,-0.5605263645791394,0.11718505974881387,-0.2576062221289515
1.0,-0.009701114058437193,-0.12046185851396803,0.03148092333885517,-0.12613856959627817,-0.2205247273678618,0.43403201817839415,-0.1425872477903593,-0.019978701218823693,-0.23897137835649432,-0.31238861476066243,-0.20173004626894006,-0.4894993907321368,-0.5605263645791394,0.10079459096040082,-0.2933902892076004
1.0,-1.1591959942282193,-0.2611780548520823,-1.1229475703189153,-0.35543821582178226,-0.220623906724168,-0.730627626757432,-0.25926003599928454,0.3454471244812441,0.13186857262325788,-0.19631258771471596,-0.19725203145540868,0.4239742924335015,0.3637386215427393,-0.735119317248664,-0.36495842336489887
1.0,0.5171507060193796,-0.2611780548520823,-1.1229475703189153,-0.3624271522562639,-0.220623906724168,-0.7559463146908195,-0.25926003599928454,0.24103974570979605,0.13186857262325788,-0.19631258771471596,-0.20792750565175583,0.4239742924335015,0.3637386215427393,-0.7733637444216278,-0.43652655752219666
1.0,0.5490811193574291,-0.25290063153807557,-1.1229475703189153,-0.3528657206769503,-0.2205247273678618,-0.7863287402108845,-0.25926003599928454,0.5020581926384162,0.08551357875078884,-0.19631258771471596,-0.1977562547848389,0.4457236658422073,0.38523315610371334,-0.8061446819984539,-0.47231062460084555
1.0,0.5810115326954786,-0.25290063153807557,-1.0956385091786238,-0.3635159056977404,-0.22032636865524943,-0.811647428144272,-0.25926003599928454,0.0626771403085724,-0.05355140286661822,-0.2958063251826701,-0.20694574874313687,0.4674730392509129,0.40672769066468717,-0.8334621299791423,-0.543878758758144
1.0,0.6209245493680404,-0.25290063153807557,-1.0881905834130898,-0.37054124273590905,-0.220623906724168,-0.8369661160776595,-0.25926003599928454,-0.05913146825811662,-0.47074634771883944,-0.31238861476066243,-0.19824144037220856,0.4892224126596185,0.4282222252256612,-0.8498525987675554,-0.5796628258367928
1.0,0.6608375660406024,-0.25290063153807557,-1.0832252995694005,-0.36503414717580573,-0.2205247273678618,-0.862284804011047,-0.25926003599928454,-0.9291929580201832,-0.05355140286661822,-0.31238861476066243,-0.19847483372006547,0.5109717860683243,0.44971675978663506,-0.9099509843250695,-0.6512309599940906
1.0,0.6927679793786519,-0.25290063153807557,-1.0956385091786238,-0.3443492940133115,-0.220623906724168,-1.7990762575463852,-0.25926003599928454,-0.3593026822260297,-0.14626139061155627,-0.31238861476066243,-0.19870230705417197,0.5109717860683243,0.4712112943476089,-0.9318049427096202,-0.6870150270727402
1.0,0.7246983927167013,-0.25290063153807557,-1.0857079414912452,-0.39227131102439017,-0.220623906724168,-1.8243949454797728,-0.25926003599928454,-0.4463088312022364,-0.4243913538463704,-0.31238861476066243,-0.20712188689805539,0.5327211594770299,0.49270582890858294,-0.9427319219018956,-0.758583161230038
1.0,0.7486462027202385,-0.25290063153807557,-1.0633641641946432,-0.35363998185670614,-0.212193661438142,-0.9382408678112096,-0.25926003599928454,-0.602919899359408,-0.7025213170811845,-0.31238861476066243,-0.19913962145121478,0.5544705328857357,0.5142003634695568,-0.986439838670997,-0.7943672283086869
1.0,0.780576616058288,-0.25290063153807557,-1.0658468061164879,-0.35765480475561373,-0.1301723337729243,-0.9584958181579197,-0.25926003599928454,-0.7116775855796664,-0.7488763109536536,-0.31238861476066243,-0.1993497038576373,0.5762199062944413,0.5356948980305308,-1.0793191618053377,-0.8659353624659853
1.0,0.8045244260618251,-0.25290063153807557,-1.0583988803509536,-0.3933377418383393,-0.220623906724168,-0.9787507685046297,-0.25926003599928454,-0.8682886537368385,-0.3780363599739014,-0.31238861476066243,-0.19955412179047133,0.5762199062944413,0.5571894325915047,-3.45047364652909,-0.9375034966232831
1.0,0.8204896327308498,-0.25290063153807557,-1.0608815222727985,-0.37180019288479305,-0.220623906724168,-0.9990057188513398,-0.25926003599928454,-1.0031481846499588,-3.5301759433017947,-0.31238861476066243,-0.19975311659320308,0.5979692797031468,0.5786839671524785,-3.45047364652909,-1.0448556978592305
1.0,-0.5764659508088159,-0.2611780548520823,-0.26891874920434955,-0.17880331462802565,-0.2205247273678618,1.0821904292731146,-0.2654007090629122,1.4591258313766893,0.31728854811313395,-0.31238861476066243,-0.1404910247967744,-0.6852437514104879,-0.6894935719449828,0.7454863633046468,0.636995454837274
1.0,-0.5764659508088159,-0.2611780548520823,-0.27636667496988365,-0.1778793353531029,-0.220623906724168,1.0315530534063395,-0.2654007090629122,1.5287307505576546,0.50270852360301,-0.31238861476066243,-0.20735643017664077,-0.6852437514104879,-0.6894935719449828,0.7127054257278207,0.5654273206799757
1.0,-0.5684833474743035,-0.2611780548520823,-0.296227810344641,1.062869125262321,-0.220623906724168,0.9809156775395644,-0.2654007090629122,1.5678835175969477,0.31728854811313395,-0.31238861476066243,-0.14195971348386924,-0.6634943780017822,-0.6894935719449828,0.69085146734327,0.5296432536013268
1.0,-0.5605007441397911,-0.2611780548520823,-0.27884931689172826,0.9841845048446102,-0.220623906724168,0.9302783016727895,-0.2654007090629122,1.6418387442267233,0.03915858487831982,-0.31238861476066243,-0.20737299769713646,-0.6634943780017822,-0.6894935719449828,0.6580705297664439,0.45807511944402896
1.0,-1.215074217569806,-0.2611780548520823,-0.23664440422036892,0.9541369860938093,-0.220623906724168,0.8796409258060144,-0.2654007090629122,1.6113865920850508,0.17822356649572688,-0.31238861476066243,-0.20157998740720967,-0.6634943780017822,-0.667999037384009,0.6416800609780308,0.42229105236538006
1.0,-0.5764659508088159,-0.2611780548520823,-0.11499495004998017,-0.38328762822647483,-0.220623906724168,0.8239398123525618,-0.2654007090629122,1.6244375144314815,0.08551357875078884,-0.31238861476066243,-0.14431435991222666,-0.6417450045930766,-0.667999037384009,0.6307530817857554,0.35072291820808166
1.0,-0.5525181408052787,-0.2611780548520823,-0.0777553212223103,0.6596490658586343,-0.220623906724168,0.7733024364857867,-0.2654007090629122,1.367769374951672,-3.483820949429326,-0.31238861476066243,-0.20174424294460044,-0.6417450045930766,-0.667999037384009,0.5925086546127917,0.27915478405078387
